 6.0250E+03 0.0000E+00
 6.0500E+03 5.8299E-17
 6.0750E+03 5.4174E-17
 6.1000E+03 5.2726E-17
 6.1250E+03 5.4721E-17
 6.1500E+03 5.0165E-17
 6.1750E+03 5.3050E-17
 6.2000E+03 5.3707E-17
 6.2250E+03 6.0804E-17
 6.2500E+03 5.2040E-17
 6.2750E+03 4.4555E-17
 6.3000E+03 5.1264E-17
 6.3250E+03 4.5856E-17
 6.3500E+03 4.6694E-17
 6.3750E+03 5.1155E-17
 6.4000E+03 4.6140E-17
 6.4250E+03 4.5830E-17
 6.4500E+03 4.2436E-17
 6.4750E+03 4.3280E-17
 6.5000E+03 4.4831E-17
 6.5250E+03 4.2957E-17
 6.5500E+03 3.9162E-17
 6.5750E+03 4.2794E-17
 6.6000E+03 4.2290E-17
 6.6250E+03 4.2668E-17
 6.6500E+03 3.9000E-17
 6.6750E+03 4.9288E-17
 6.7000E+03 3.4696E-17
 6.7250E+03 3.4941E-17
 6.7500E+03 4.2196E-17
 6.7750E+03 4.1089E-17
 6.8000E+03 3.8024E-17
 6.8250E+03 3.7833E-17
 6.8500E+03 3.4015E-17
 6.8750E+03 3.4496E-17
 6.9000E+03 3.8010E-17
 6.9250E+03 3.7693E-17
 6.9500E+03 4.0745E-17
 6.9750E+03 3.4776E-17
 7.0000E+03 3.5567E-17
 7.0250E+03 3.5491E-17
 7.0500E+03 1.9327E-05
 7.0750E+03 1.9254E-05
 7.1000E+03 1.9181E-05
 7.1250E+03 1.9108E-05
 7.1500E+03 1.9034E-05
 7.1750E+03 1.8961E-05
 7.2000E+03 1.8887E-05
 7.2250E+03 1.8813E-05
 7.2500E+03 1.8738E-05
 7.2750E+03 1.8664E-05
 7.3000E+03 1.8589E-05
 7.3250E+03 1.8514E-05
 7.3500E+03 1.8440E-05
 7.3750E+03 1.8364E-05
 7.4000E+03 1.8289E-05
 7.4250E+03 1.8214E-05
 7.4500E+03 1.8138E-05
 7.4750E+03 1.8062E-05
 7.5000E+03 1.7986E-05
 7.5250E+03 1.7911E-05
 7.5500E+03 1.7835E-05
 7.5750E+03 1.7759E-05
 7.6000E+03 1.7683E-05
 7.6250E+03 1.7607E-05
 7.6500E+03 1.7530E-05
 7.6750E+03 1.7453E-05
 7.7000E+03 1.7377E-05
 7.7250E+03 1.7300E-05
 7.7500E+03 1.7224E-05
 7.7750E+03 1.7148E-05
 7.8000E+03 1.7071E-05
 7.8250E+03 1.6995E-05
 7.8500E+03 1.6918E-05
 7.8750E+03 1.6841E-05
 7.9000E+03 1.6764E-05
 7.9250E+03 1.6688E-05
 7.9500E+03 1.6612E-05
 7.9750E+03 1.6536E-05
 8.0000E+03 1.6460E-05
 8.0250E+03 1.6384E-05
 8.0500E+03 1.6308E-05
 8.0750E+03 1.6233E-05
 8.1000E+03 1.6157E-05
 8.1250E+03 1.6081E-05
 8.1500E+03 1.6006E-05
 8.1750E+03 1.5931E-05
 8.2000E+03 1.5856E-05
 8.2250E+03 1.5780E-05
 8.2500E+03 1.5706E-05
 8.2750E+03 1.5631E-05
 8.3000E+03 1.5556E-05
 8.3250E+03 1.5482E-05
 8.3500E+03 1.5408E-05
 8.3750E+03 1.5334E-05
 8.4000E+03 1.5260E-05
 8.4250E+03 1.5187E-05
 8.4500E+03 1.5114E-05
 8.4750E+03 1.5041E-05
 8.5000E+03 1.4968E-05
 8.5250E+03 1.4896E-05
 8.5500E+03 1.4824E-05
 8.5750E+03 1.4752E-05
 8.6000E+03 1.4680E-05
 8.6250E+03 1.4609E-05
 8.6500E+03 1.4538E-05
 8.6750E+03 1.4468E-05
 8.7000E+03 1.4397E-05
 8.7250E+03 1.4327E-05
 8.7500E+03 1.4258E-05
 8.7750E+03 1.4189E-05
 8.8000E+03 1.4120E-05
 8.8250E+03 1.4052E-05
 8.8500E+03 1.3984E-05
 8.8750E+03 1.3916E-05
 8.9000E+03 1.3849E-05
 8.9250E+03 1.3782E-05
 8.9500E+03 1.3716E-05
 8.9750E+03 1.3650E-05
 9.0000E+03 1.3584E-05
 9.0250E+03 1.3519E-05
 9.0500E+03 1.3454E-05
 9.0750E+03 1.3390E-05
 9.1000E+03 1.3326E-05
 9.1250E+03 1.3263E-05
 9.1500E+03 1.3200E-05
 9.1750E+03 1.3137E-05
 9.2000E+03 1.3075E-05
 9.2250E+03 1.3014E-05
 9.2500E+03 1.2952E-05
 9.2750E+03 1.2892E-05
 9.3000E+03 1.2832E-05
 9.3250E+03 1.2772E-05
 9.3500E+03 1.2713E-05
 9.3750E+03 1.2654E-05
 9.4000E+03 1.2596E-05
 9.4250E+03 1.2538E-05
 9.4500E+03 1.2481E-05
 9.4750E+03 1.2424E-05
 9.5000E+03 1.2368E-05
 9.5250E+03 1.2312E-05
 9.5500E+03 1.2256E-05
 9.5750E+03 1.2202E-05
 9.6000E+03 1.2147E-05
 9.6250E+03 1.2093E-05
 9.6500E+03 1.2040E-05
 9.6750E+03 1.1987E-05
 9.7000E+03 1.1934E-05
 9.7250E+03 1.1883E-05
 9.7500E+03 1.1831E-05
 9.7750E+03 1.1780E-05
 9.8000E+03 1.1730E-05
 9.8250E+03 1.1679E-05
 9.8500E+03 1.1630E-05
 9.8750E+03 1.1581E-05
 9.9000E+03 1.1532E-05
 9.9250E+03 1.1484E-05
 9.9500E+03 1.1436E-05
 9.9750E+03 1.1389E-05
 1.0000E+04 1.1343E-05
 1.0025E+04 8.0140E-18
 1.0050E+04 7.8582E-18
 1.0075E+04 7.8410E-18
 1.0100E+04 1.0459E-17
 1.0125E+04 9.1891E-18
 1.0150E+04 9.7339E-18
 1.0175E+04 8.0602E-18
 1.0200E+04 8.8784E-18
 1.0225E+04 8.0051E-18
 1.0250E+04 8.4828E-18
 1.0275E+04 8.7292E-18
 1.0300E+04 6.7700E-18
 1.0325E+04 7.2162E-18
 1.0350E+04 7.5941E-18
 1.0375E+04 6.8362E-18
 1.0400E+04 7.2548E-18
 1.0425E+04 6.5972E-18
 1.0450E+04 8.3435E-18
 1.0475E+04 7.4666E-18
 1.0500E+04 7.9775E-18
 1.0525E+04 7.4957E-18
 1.0550E+04 7.4985E-18
 1.0575E+04 8.1657E-18
 1.0600E+04 7.3983E-18
 1.0625E+04 7.2132E-18
 1.0650E+04 8.1360E-18
 1.0675E+04 6.5402E-18
 1.0700E+04 6.1603E-18
 1.0725E+04 6.5249E-18
 1.0750E+04 6.1760E-18
 1.0775E+04 6.1883E-18
 1.0800E+04 7.2846E-18
 1.0825E+04 6.0035E-18
 1.0850E+04 6.0333E-18
 1.0875E+04 6.2804E-18
 1.0900E+04 5.9325E-18
 1.0925E+04 5.4693E-18
 1.0950E+04 6.6588E-18
 1.0975E+04 6.6067E-18
 1.1000E+04 6.7883E-18
