 0.0000E+00 7.9615E-04
 2.8571E-01 7.9610E-04
 5.7143E-01 7.9595E-04
 8.5714E-01 7.9574E-04
 1.1429E+00 7.9542E-04
 1.4286E+00 7.9502E-04
 1.7143E+00 7.9454E-04
 2.0000E+00 7.9397E-04
 2.2857E+00 7.9331E-04
 2.5714E+00 7.9256E-04
 2.8571E+00 7.9173E-04
 3.1429E+00 7.9081E-04
 3.4286E+00 7.8981E-04
 3.7143E+00 7.8872E-04
 4.0000E+00 7.8755E-04
 4.2857E+00 7.8628E-04
 4.5714E+00 7.8494E-04
 4.8571E+00 7.8351E-04
 5.1429E+00 7.8198E-04
 5.4286E+00 7.8038E-04
 5.7143E+00 7.7870E-04
 6.0000E+00 7.7694E-04
 6.2857E+00 7.7510E-04
 6.5714E+00 7.7319E-04
 6.8571E+00 7.7119E-04
 7.1429E+00 7.6910E-04
 7.4286E+00 7.6694E-04
 7.7143E+00 7.6469E-04
 8.0000E+00 7.6238E-04
 8.2857E+00 7.5998E-04
 8.5714E+00 7.5751E-04
 8.8571E+00 7.5496E-04
 9.1429E+00 7.5234E-04
 9.4286E+00 7.4965E-04
 9.7143E+00 7.4688E-04
 1.0000E+01 7.4405E-04
 1.0286E+01 7.4113E-04
 1.0571E+01 7.3815E-04
 1.0857E+01 7.3509E-04
 1.1143E+01 7.3197E-04
 1.1429E+01 7.2878E-04
 1.1714E+01 7.2553E-04
 1.2000E+01 7.2222E-04
 1.2286E+01 7.1884E-04
 1.2571E+01 7.1540E-04
 1.2857E+01 7.1189E-04
 1.3143E+01 7.0832E-04
 1.3429E+01 7.0469E-04
 1.3714E+01 7.0101E-04
 1.4000E+01 6.9726E-04
 1.4286E+01 6.9347E-04
 1.4571E+01 6.8961E-04
 1.4857E+01 6.8570E-04
 1.5143E+01 6.8174E-04
 1.5429E+01 6.7773E-04
 1.5714E+01 6.7366E-04
 1.6000E+01 6.6955E-04
 1.6286E+01 6.6538E-04
 1.6571E+01 6.6117E-04
 1.6857E+01 6.5691E-04
 1.7143E+01 6.5261E-04
 1.7429E+01 6.4827E-04
 1.7714E+01 6.4388E-04
 1.8000E+01 6.3945E-04
 1.8286E+01 6.3499E-04
 1.8571E+01 6.3048E-04
 1.8857E+01 6.2594E-04
 1.9143E+01 6.2136E-04
 1.9429E+01 6.1674E-04
 1.9714E+01 6.1210E-04
 2.0000E+01 6.0743E-04
 2.0286E+01 6.0272E-04
 2.0571E+01 5.9798E-04
 2.0857E+01 5.9321E-04
 2.1143E+01 5.8842E-04
 2.1429E+01 5.8361E-04
 2.1714E+01 5.7876E-04
 2.2000E+01 5.7390E-04
 2.2286E+01 5.6901E-04
 2.2571E+01 5.6410E-04
 2.2857E+01 5.5917E-04
 2.3143E+01 5.5423E-04
 2.3429E+01 5.4926E-04
 2.3714E+01 5.4428E-04
 2.4000E+01 5.3928E-04
 2.4286E+01 5.3428E-04
 2.4571E+01 5.2925E-04
 2.4857E+01 5.2422E-04
 2.5143E+01 5.1918E-04
 2.5429E+01 5.1413E-04
 2.5714E+01 5.0908E-04
 2.6000E+01 5.0402E-04
 2.6286E+01 4.9895E-04
 2.6571E+01 4.9389E-04
 2.6857E+01 4.8882E-04
 2.7143E+01 4.8375E-04
 2.7429E+01 4.7868E-04
 2.7714E+01 4.7360E-04
 2.8000E+01 4.6854E-04
 2.8286E+01 4.6347E-04
 2.8571E+01 4.5841E-04
 2.8857E+01 4.5335E-04
 2.9143E+01 4.4830E-04
 2.9429E+01 4.4326E-04
 2.9714E+01 4.3822E-04
 3.0000E+01 4.3320E-04
 3.0286E+01 4.2818E-04
 3.0571E+01 4.2318E-04
 3.0857E+01 4.1819E-04
 3.1143E+01 4.1320E-04
 3.1429E+01 4.0824E-04
 3.1714E+01 4.0329E-04
 3.2000E+01 3.9836E-04
 3.2286E+01 3.9344E-04
 3.2571E+01 3.8855E-04
 3.2857E+01 3.8367E-04
 3.3143E+01 3.7881E-04
 3.3429E+01 3.7397E-04
 3.3714E+01 3.6915E-04
 3.4000E+01 3.6435E-04
 3.4286E+01 3.5958E-04
 3.4571E+01 3.5483E-04
 3.4857E+01 3.5010E-04
 3.5143E+01 3.4540E-04
 3.5429E+01 3.4072E-04
 3.5714E+01 3.3607E-04
 3.6000E+01 3.3145E-04
 3.6286E+01 3.2685E-04
 3.6571E+01 3.2228E-04
 3.6857E+01 3.1774E-04
 3.7143E+01 3.1323E-04
 3.7429E+01 3.0875E-04
 3.7714E+01 3.0430E-04
 3.8000E+01 2.9988E-04
 3.8286E+01 2.9549E-04
 3.8571E+01 2.9114E-04
 3.8857E+01 2.8682E-04
 3.9143E+01 2.8253E-04
 3.9429E+01 2.7827E-04
 3.9714E+01 2.7405E-04
 4.0000E+01 2.6986E-04
 4.0286E+01 2.6571E-04
 4.0571E+01 2.6160E-04
 4.0857E+01 2.5751E-04
 4.1143E+01 2.5347E-04
 4.1429E+01 2.4946E-04
 4.1714E+01 2.4549E-04
 4.2000E+01 2.4155E-04
 4.2286E+01 2.3765E-04
 4.2571E+01 2.3378E-04
 4.2857E+01 2.2996E-04
 4.3143E+01 2.2617E-04
 4.3429E+01 2.2242E-04
 4.3714E+01 2.1871E-04
 4.4000E+01 2.1503E-04
 4.4286E+01 2.1139E-04
 4.4571E+01 2.0780E-04
 4.4857E+01 2.0424E-04
 4.5143E+01 2.0072E-04
 4.5429E+01 1.9724E-04
 4.5714E+01 1.9380E-04
 4.6000E+01 1.9039E-04
 4.6286E+01 1.8703E-04
 4.6571E+01 1.8370E-04
 4.6857E+01 1.8042E-04
 4.7143E+01 1.7717E-04
 4.7429E+01 1.7396E-04
 4.7714E+01 1.7080E-04
 4.8000E+01 1.6767E-04
 4.8286E+01 1.6458E-04
 4.8571E+01 1.6153E-04
 4.8857E+01 1.5852E-04
 4.9143E+01 1.5554E-04
 4.9429E+01 1.5261E-04
 4.9714E+01 1.4972E-04
 5.0000E+01 1.4686E-04
 5.0286E+01 1.4404E-04
 5.0571E+01 1.4126E-04
 5.0857E+01 1.3852E-04
 5.1143E+01 1.3582E-04
 5.1429E+01 1.3316E-04
 5.1714E+01 1.3053E-04
 5.2000E+01 1.2794E-04
 5.2286E+01 1.2539E-04
 5.2571E+01 1.2288E-04
 5.2857E+01 1.2040E-04
 5.3143E+01 1.1796E-04
 5.3429E+01 1.1556E-04
 5.3714E+01 1.1319E-04
 5.4000E+01 1.1086E-04
 5.4286E+01 1.0856E-04
 5.4571E+01 1.0630E-04
 5.4857E+01 1.0408E-04
 5.5143E+01 1.0189E-04
 5.5429E+01 9.9739E-05
 5.5714E+01 9.7621E-05
 5.6000E+01 9.5539E-05
 5.6286E+01 9.3489E-05
 5.6571E+01 9.1474E-05
 5.6857E+01 8.9491E-05
 5.7143E+01 8.7542E-05
 5.7429E+01 8.5626E-05
 5.7714E+01 8.3742E-05
 5.8000E+01 8.1891E-05
 5.8286E+01 8.0073E-05
 5.8571E+01 7.8286E-05
 5.8857E+01 7.6531E-05
 5.9143E+01 7.4807E-05
 5.9429E+01 7.3113E-05
 5.9714E+01 7.1450E-05
 6.0000E+01 6.9816E-05
 6.0286E+01 6.8213E-05
 6.0571E+01 6.6638E-05
 6.0857E+01 6.5094E-05
 6.1143E+01 6.3577E-05
 6.1429E+01 6.2089E-05
 6.1714E+01 6.0630E-05
 6.2000E+01 5.9199E-05
 6.2286E+01 5.7794E-05
 6.2571E+01 5.6417E-05
 6.2857E+01 5.5066E-05
 6.3143E+01 5.3743E-05
 6.3429E+01 5.2445E-05
 6.3714E+01 5.1174E-05
 6.4000E+01 4.9927E-05
 6.4286E+01 4.8706E-05
 6.4571E+01 4.7508E-05
 6.4857E+01 4.6335E-05
 6.5143E+01 4.5186E-05
 6.5429E+01 4.4059E-05
 6.5714E+01 4.2958E-05
 6.6000E+01 4.1878E-05
 6.6286E+01 4.0821E-05
 6.6571E+01 3.9787E-05
 6.6857E+01 3.8774E-05
 6.7143E+01 3.7784E-05
 6.7429E+01 3.6815E-05
 6.7714E+01 3.5866E-05
 6.8000E+01 3.4938E-05
 6.8286E+01 3.4030E-05
 6.8571E+01 3.3142E-05
 6.8857E+01 3.2275E-05
 6.9143E+01 3.1425E-05
 6.9429E+01 3.0595E-05
 6.9714E+01 2.9784E-05
 7.0000E+01 2.8990E-05
 7.0286E+01 2.8216E-05
 7.0571E+01 2.7458E-05
 7.0857E+01 2.6718E-05
 7.1143E+01 2.5995E-05
 7.1429E+01 2.5289E-05
 7.1714E+01 2.4600E-05
 7.2000E+01 2.3926E-05
 7.2286E+01 2.3269E-05
 7.2571E+01 2.2627E-05
 7.2857E+01 2.2000E-05
 7.3143E+01 2.1388E-05
 7.3429E+01 2.0791E-05
 7.3714E+01 2.0208E-05
 7.4000E+01 1.9639E-05
 7.4286E+01 1.9085E-05
 7.4571E+01 1.8544E-05
 7.4857E+01 1.8016E-05
 7.5143E+01 1.7502E-05
 7.5429E+01 1.7000E-05
 7.5714E+01 1.6511E-05
 7.6000E+01 1.6034E-05
 7.6286E+01 1.5569E-05
 7.6571E+01 1.5116E-05
 7.6857E+01 1.4675E-05
 7.7143E+01 1.4245E-05
 7.7429E+01 1.3826E-05
 7.7714E+01 1.3418E-05
 7.8000E+01 1.3020E-05
 7.8286E+01 1.2633E-05
 7.8571E+01 1.2256E-05
 7.8857E+01 1.1888E-05
 7.9143E+01 1.1531E-05
 7.9429E+01 1.1183E-05
 7.9714E+01 1.0845E-05
 8.0000E+01 1.0516E-05
 8.0286E+01 1.0195E-05
 8.0571E+01 9.8831E-06
 8.0857E+01 9.5795E-06
 8.1143E+01 9.2840E-06
 8.1429E+01 8.9967E-06
 8.1714E+01 8.7175E-06
 8.2000E+01 8.4462E-06
 8.2286E+01 8.1824E-06
 8.2571E+01 7.9259E-06
 8.2857E+01 7.6768E-06
 8.3143E+01 7.4346E-06
 8.3429E+01 7.1992E-06
 8.3714E+01 6.9705E-06
 8.4000E+01 6.7482E-06
 8.4286E+01 6.5324E-06
 8.4571E+01 6.3227E-06
 8.4857E+01 6.1191E-06
 8.5143E+01 5.9215E-06
 8.5429E+01 5.7293E-06
 8.5714E+01 5.5432E-06
 8.6000E+01 5.3621E-06
 8.6286E+01 5.1866E-06
 8.6571E+01 5.0162E-06
 8.6857E+01 4.8510E-06
 8.7143E+01 4.6906E-06
 8.7429E+01 4.5352E-06
 8.7714E+01 4.3844E-06
 8.8000E+01 4.2382E-06
 8.8286E+01 4.0964E-06
 8.8571E+01 3.9587E-06
 8.8857E+01 3.8256E-06
 8.9143E+01 3.6960E-06
 8.9429E+01 3.5709E-06
 8.9714E+01 3.4491E-06
 9.0000E+01 3.3316E-06
 9.0286E+01 3.2174E-06
 9.0571E+01 3.1070E-06
 9.0857E+01 3.0000E-06
 9.1143E+01 2.8964E-06
 9.1429E+01 2.7961E-06
 9.1714E+01 2.6990E-06
 9.2000E+01 2.6049E-06
 9.2286E+01 2.5138E-06
 9.2571E+01 2.4256E-06
 9.2857E+01 2.3403E-06
 9.3143E+01 2.2578E-06
 9.3429E+01 2.1779E-06
 9.3714E+01 2.1006E-06
 9.4000E+01 2.0259E-06
 9.4286E+01 1.9536E-06
 9.4571E+01 1.8836E-06
 9.4857E+01 1.8160E-06
 9.5143E+01 1.7505E-06
 9.5429E+01 1.6873E-06
 9.5714E+01 1.6261E-06
 9.6000E+01 1.5670E-06
 9.6286E+01 1.5099E-06
 9.6571E+01 1.4546E-06
 9.6857E+01 1.4012E-06
 9.7143E+01 1.3496E-06
 9.7429E+01 1.2998E-06
 9.7714E+01 1.2518E-06
 9.8000E+01 1.2053E-06
 9.8286E+01 1.1604E-06
 9.8571E+01 1.1171E-06
 9.8857E+01 1.0755E-06
 9.9143E+01 1.0351E-06
 9.9429E+01 9.9621E-07
 9.9714E+01 9.5859E-07
 1.0000E+02 9.2235E-07
 1.0029E+02 8.8731E-07
 1.0057E+02 8.5352E-07
 1.0086E+02 8.2094E-07
 1.0114E+02 7.8944E-07
 1.0143E+02 7.5916E-07
 1.0171E+02 7.2984E-07
 1.0200E+02 7.0165E-07
 1.0229E+02 6.7444E-07
 1.0257E+02 6.4825E-07
 1.0286E+02 6.2304E-07
 1.0314E+02 5.9874E-07
 1.0343E+02 5.7532E-07
 1.0371E+02 5.5275E-07
 1.0400E+02 5.3105E-07
 1.0429E+02 5.1014E-07
 1.0457E+02 4.8999E-07
 1.0486E+02 4.7058E-07
 1.0514E+02 4.5186E-07
 1.0543E+02 4.3388E-07
 1.0571E+02 4.1648E-07
 1.0600E+02 3.9978E-07
 1.0629E+02 3.8375E-07
 1.0657E+02 3.6827E-07
 1.0686E+02 3.5343E-07
 1.0714E+02 3.3909E-07
 1.0743E+02 3.2533E-07
 1.0771E+02 3.1207E-07
 1.0800E+02 2.9930E-07
 1.0829E+02 2.8707E-07
 1.0857E+02 2.7529E-07
 1.0886E+02 2.6400E-07
 1.0914E+02 2.5311E-07
 1.0943E+02 2.4269E-07
 1.0971E+02 2.3266E-07
 1.1000E+02 2.2297E-07
 1.1029E+02 2.1369E-07
 1.1057E+02 2.0475E-07
 1.1086E+02 1.9616E-07
 1.1114E+02 1.8791E-07
 1.1143E+02 1.8001E-07
 1.1171E+02 1.7241E-07
 1.1200E+02 1.6513E-07
 1.1229E+02 1.5812E-07
 1.1257E+02 1.5140E-07
 1.1286E+02 1.4492E-07
 1.1314E+02 1.3872E-07
 1.1343E+02 1.3279E-07
 1.1371E+02 1.2709E-07
 1.1400E+02 1.2165E-07
 1.1429E+02 1.1639E-07
 1.1457E+02 1.1136E-07
 1.1486E+02 1.0654E-07
 1.1514E+02 1.0190E-07
 1.1543E+02 9.7447E-08
 1.1571E+02 9.3182E-08
 1.1600E+02 8.9097E-08
 1.1629E+02 8.5177E-08
 1.1657E+02 8.1439E-08
 1.1686E+02 7.7849E-08
 1.1714E+02 7.4388E-08
 1.1743E+02 7.1091E-08
 1.1771E+02 6.7926E-08
 1.1800E+02 6.4906E-08
 1.1829E+02 6.2005E-08
 1.1857E+02 5.9233E-08
 1.1886E+02 5.6603E-08
 1.1914E+02 5.4060E-08
 1.1943E+02 5.1644E-08
 1.1971E+02 4.9313E-08
 1.2000E+02 4.7091E-08
 1.2029E+02 4.4958E-08
 1.2057E+02 4.2914E-08
 1.2086E+02 4.0948E-08
 1.2114E+02 3.9074E-08
 1.2143E+02 3.7287E-08
 1.2171E+02 3.5564E-08
 1.2200E+02 3.3932E-08
 1.2229E+02 3.2379E-08
 1.2257E+02 3.0890E-08
 1.2286E+02 2.9464E-08
 1.2314E+02 2.8108E-08
 1.2343E+02 2.6797E-08
 1.2371E+02 2.5549E-08
 1.2400E+02 2.4359E-08
 1.2429E+02 2.3215E-08
 1.2457E+02 2.2122E-08
 1.2486E+02 2.1089E-08
 1.2514E+02 2.0088E-08
 1.2543E+02 1.9145E-08
 1.2571E+02 1.8227E-08
 1.2600E+02 1.7358E-08
 1.2629E+02 1.6530E-08
 1.2657E+02 1.5732E-08
 1.2686E+02 1.4984E-08
 1.2714E+02 1.4262E-08
 1.2743E+02 1.3586E-08
 1.2771E+02 1.2931E-08
 1.2800E+02 1.2311E-08
 1.2829E+02 1.1715E-08
 1.2857E+02 1.1150E-08
 1.2886E+02 1.0606E-08
 1.2914E+02 1.0085E-08
 1.2943E+02 9.5923E-09
 1.2971E+02 9.1196E-09
 1.3000E+02 8.6723E-09
 1.3029E+02 8.2468E-09
 1.3057E+02 7.8424E-09
 1.3086E+02 7.4618E-09
 1.3114E+02 7.0928E-09
 1.3143E+02 6.7421E-09
 1.3171E+02 6.4095E-09
 1.3200E+02 6.0888E-09
 1.3229E+02 5.7850E-09
 1.3257E+02 5.4935E-09
 1.3286E+02 5.2230E-09
 1.3314E+02 4.9582E-09
 1.3343E+02 4.7125E-09
 1.3371E+02 4.4766E-09
 1.3400E+02 4.2531E-09
 1.3429E+02 4.0363E-09
 1.3457E+02 3.8340E-09
 1.3486E+02 3.6384E-09
 1.3514E+02 3.4519E-09
 1.3543E+02 3.2784E-09
 1.3571E+02 3.1115E-09
 1.3600E+02 2.9578E-09
 1.3629E+02 2.8049E-09
 1.3657E+02 2.6608E-09
 1.3686E+02 2.5226E-09
 1.3714E+02 2.3911E-09
 1.3743E+02 2.2650E-09
 1.3771E+02 2.1489E-09
 1.3800E+02 2.0371E-09
 1.3829E+02 1.9339E-09
 1.3857E+02 1.8334E-09
 1.3886E+02 1.7369E-09
 1.3914E+02 1.6460E-09
 1.3943E+02 1.5599E-09
 1.3971E+02 1.4762E-09
 1.4000E+02 1.3973E-09
 1.4029E+02 1.3258E-09
 1.4057E+02 1.2543E-09
 1.4086E+02 1.1896E-09
 1.4114E+02 1.1250E-09
 1.4143E+02 1.0646E-09
 1.4171E+02 1.0091E-09
 1.4200E+02 9.5296E-10
 1.4229E+02 9.0267E-10
 1.4257E+02 8.5348E-10
 1.4286E+02 8.0742E-10
 1.4314E+02 7.6654E-10
 1.4343E+02 7.2503E-10
 1.4371E+02 6.8807E-10
 1.4400E+02 6.5054E-10
 1.4429E+02 6.1607E-10
 1.4457E+02 5.8146E-10
 1.4486E+02 5.4999E-10
 1.4514E+02 5.2007E-10
 1.4543E+02 4.9133E-10
 1.4571E+02 4.6471E-10
 1.4600E+02 4.3894E-10
 1.4629E+02 4.1562E-10
 1.4657E+02 3.9114E-10
 1.4686E+02 3.7020E-10
 1.4714E+02 3.4978E-10
 1.4743E+02 3.3027E-10
 1.4771E+02 3.1197E-10
 1.4800E+02 2.9482E-10
 1.4829E+02 2.7768E-10
 1.4857E+02 2.6327E-10
 1.4886E+02 2.4794E-10
 1.4914E+02 2.3445E-10
 1.4943E+02 2.2105E-10
 1.4971E+02 2.0765E-10
 1.5000E+02 1.9705E-10
 1.5029E+02 1.8528E-10
 1.5057E+02 1.7612E-10
 1.5086E+02 1.6537E-10
 1.5114E+02 1.5543E-10
 1.5143E+02 1.4658E-10
 1.5171E+02 1.3802E-10
 1.5200E+02 1.3019E-10
 1.5229E+02 1.2234E-10
 1.5257E+02 1.1511E-10
 1.5286E+02 1.0859E-10
 1.5314E+02 1.0282E-10
 1.5343E+02 9.7131E-11
 1.5371E+02 9.2015E-11
 1.5400E+02 8.6800E-11
 1.5429E+02 8.1960E-11
 1.5457E+02 7.7150E-11
 1.5486E+02 7.2592E-11
 1.5514E+02 6.8158E-11
 1.5543E+02 6.4375E-11
 1.5571E+02 6.0416E-11
 1.5600E+02 5.7035E-11
 1.5629E+02 5.3595E-11
 1.5657E+02 5.0036E-11
 1.5686E+02 4.7501E-11
 1.5714E+02 4.4572E-11
 1.5743E+02 4.2259E-11
 1.5771E+02 3.9554E-11
 1.5800E+02 3.7810E-11
 1.5829E+02 3.5343E-11
 1.5857E+02 3.3006E-11
 1.5886E+02 3.1365E-11
 1.5914E+02 2.9094E-11
 1.5943E+02 2.7668E-11
 1.5971E+02 2.5675E-11
 1.6000E+02 2.4133E-11
 1.6029E+02 2.2614E-11
 1.6057E+02 2.1310E-11
 1.6086E+02 2.0067E-11
 1.6114E+02 1.8923E-11
 1.6143E+02 1.7806E-11
 1.6171E+02 1.6689E-11
 1.6200E+02 1.5845E-11
 1.6229E+02 1.4761E-11
 1.6257E+02 1.3917E-11
 1.6286E+02 1.3006E-11
 1.6314E+02 1.2205E-11
 1.6343E+02 1.1536E-11
 1.6371E+02 1.0913E-11
 1.6400E+02 1.0313E-11
 1.6429E+02 9.7209E-12
 1.6457E+02 9.0155E-12
 1.6486E+02 8.2698E-12
 1.6514E+02 7.5978E-12
 1.6543E+02 7.1136E-12
 1.6571E+02 6.7020E-12
 1.6600E+02 6.3023E-12
 1.6629E+02 5.9317E-12
 1.6657E+02 5.5495E-12
 1.6686E+02 5.3398E-12
 1.6714E+02 4.9978E-12
 1.6743E+02 4.6719E-12
 1.6771E+02 4.3332E-12
 1.6800E+02 3.9213E-12
 1.6829E+02 3.7080E-12
 1.6857E+02 3.4300E-12
 1.6886E+02 3.2325E-12
 1.6914E+02 3.0287E-12
 1.6943E+02 2.9342E-12
 1.6971E+02 2.7534E-12
 1.7000E+02 2.5969E-12
 1.7029E+02 2.4497E-12
 1.7057E+02 2.2936E-12
 1.7086E+02 2.2442E-12
 1.7114E+02 2.0341E-12
 1.7143E+02 1.9376E-12
 1.7171E+02 1.7525E-12
 1.7200E+02 1.7268E-12
 1.7229E+02 1.6081E-12
 1.7257E+02 1.5067E-12
 1.7286E+02 1.4318E-12
 1.7314E+02 1.2986E-12
 1.7343E+02 1.1992E-12
 1.7371E+02 1.1307E-12
 1.7400E+02 1.0674E-12
 1.7429E+02 9.8141E-13
 1.7457E+02 9.8448E-13
 1.7486E+02 8.8355E-13
 1.7514E+02 8.2933E-13
 1.7543E+02 7.0464E-13
 1.7571E+02 6.7068E-13
 1.7600E+02 6.2586E-13
 1.7629E+02 5.7625E-13
 1.7657E+02 5.3693E-13
 1.7686E+02 5.0445E-13
 1.7714E+02 4.7547E-13
 1.7743E+02 4.3253E-13
 1.7771E+02 4.0845E-13
 1.7800E+02 3.5783E-13
 1.7829E+02 3.4053E-13
 1.7857E+02 2.9749E-13
 1.7886E+02 2.8842E-13
 1.7914E+02 2.6491E-13
 1.7943E+02 2.9248E-13
 1.7971E+02 2.6103E-13
 1.8000E+02 2.4529E-13
 1.8029E+02 2.3010E-13
 1.8057E+02 1.9510E-13
 1.8086E+02 1.8228E-13
 1.8114E+02 1.5662E-13
 1.8143E+02 1.6638E-13
 1.8171E+02 1.5460E-13
 1.8200E+02 1.6636E-13
 1.8229E+02 1.4762E-13
 1.8257E+02 1.4501E-13
 1.8286E+02 1.3700E-13
 1.8314E+02 1.1116E-13
 1.8343E+02 1.0714E-13
 1.8371E+02 8.7706E-14
 1.8400E+02 8.8753E-14
 1.8429E+02 7.9380E-14
 1.8457E+02 8.1766E-14
 1.8486E+02 7.6564E-14
 1.8514E+02 7.2071E-14
 1.8543E+02 7.8501E-14
 1.8571E+02 6.1969E-14
 1.8600E+02 5.4195E-14
 1.8629E+02 4.0039E-14
 1.8657E+02 5.1816E-14
 1.8686E+02 4.6839E-14
 1.8714E+02 4.1291E-14
 1.8743E+02 4.6368E-14
 1.8771E+02 4.3243E-14
 1.8800E+02 4.7857E-14
 1.8829E+02 4.0997E-14
 1.8857E+02 4.4627E-14
 1.8886E+02 4.1460E-14
 1.8914E+02 4.2478E-14
 1.8943E+02 4.2068E-14
 1.8971E+02 3.7181E-14
 1.9000E+02 2.6038E-14
 1.9029E+02 2.6355E-14
 1.9057E+02 1.7379E-14
 1.9086E+02 1.7609E-14
 1.9114E+02 1.8573E-14
 1.9143E+02 1.1058E-14
 1.9171E+02 9.5693E-15
 1.9200E+02 1.0091E-14
 1.9229E+02 1.2657E-14
 1.9257E+02 1.1954E-14
 1.9286E+02 1.0340E-14
 1.9314E+02 9.2681E-15
 1.9343E+02 5.7847E-15
 1.9371E+02 3.5456E-15
 1.9400E+02 2.1394E-15
 1.9429E+02 3.5630E-16
 1.9457E+02 6.0842E-16
 1.9486E+02 1.4077E-15
 1.9514E+02 3.8505E-15
 1.9543E+02 2.5709E-15
 1.9571E+02 2.1221E-15
 1.9600E+02 1.3835E-15
 1.9629E+02 1.3323E-15
 1.9657E+02 4.5619E-16
 1.9686E+02 2.0050E-16
 1.9714E+02 6.7773E-17
 1.9743E+02 1.6920E-19
 1.9771E+02 9.1981E-18
 1.9800E+02 7.8186E-18
 1.9829E+02 3.0926E-18
 1.9857E+02 7.3425E-19
 1.9886E+02 9.0346E-20
 1.9914E+02 1.9758E-21
 1.9943E+02 5.2458E-21
 1.9971E+02 5.4030E-21
 2.0000E+02 2.3188E-21
