 0.0000E+00 7.5557E-04
 2.8571E-01 7.5550E-04
 5.7143E-01 7.5537E-04
 8.5714E-01 7.5517E-04
 1.1429E+00 7.5490E-04
 1.4286E+00 7.5453E-04
 1.7143E+00 7.5411E-04
 2.0000E+00 7.5360E-04
 2.2857E+00 7.5301E-04
 2.5714E+00 7.5234E-04
 2.8571E+00 7.5160E-04
 3.1429E+00 7.5077E-04
 3.4286E+00 7.4987E-04
 3.7143E+00 7.4889E-04
 4.0000E+00 7.4782E-04
 4.2857E+00 7.4669E-04
 4.5714E+00 7.4548E-04
 4.8571E+00 7.4420E-04
 5.1429E+00 7.4283E-04
 5.4286E+00 7.4139E-04
 5.7143E+00 7.3987E-04
 6.0000E+00 7.3829E-04
 6.2857E+00 7.3663E-04
 6.5714E+00 7.3490E-04
 6.8571E+00 7.3308E-04
 7.1429E+00 7.3121E-04
 7.4286E+00 7.2925E-04
 7.7143E+00 7.2722E-04
 8.0000E+00 7.2513E-04
 8.2857E+00 7.2296E-04
 8.5714E+00 7.2073E-04
 8.8571E+00 7.1842E-04
 9.1429E+00 7.1605E-04
 9.4286E+00 7.1362E-04
 9.7143E+00 7.1112E-04
 1.0000E+01 7.0855E-04
 1.0286E+01 7.0592E-04
 1.0571E+01 7.0323E-04
 1.0857E+01 7.0048E-04
 1.1143E+01 6.9766E-04
 1.1429E+01 6.9478E-04
 1.1714E+01 6.9184E-04
 1.2000E+01 6.8884E-04
 1.2286E+01 6.8578E-04
 1.2571E+01 6.8266E-04
 1.2857E+01 6.7948E-04
 1.3143E+01 6.7625E-04
 1.3429E+01 6.7296E-04
 1.3714E+01 6.6962E-04
 1.4000E+01 6.6622E-04
 1.4286E+01 6.6278E-04
 1.4571E+01 6.5928E-04
 1.4857E+01 6.5574E-04
 1.5143E+01 6.5214E-04
 1.5429E+01 6.4849E-04
 1.5714E+01 6.4479E-04
 1.6000E+01 6.4106E-04
 1.6286E+01 6.3727E-04
 1.6571E+01 6.3345E-04
 1.6857E+01 6.2958E-04
 1.7143E+01 6.2566E-04
 1.7429E+01 6.2171E-04
 1.7714E+01 6.1772E-04
 1.8000E+01 6.1368E-04
 1.8286E+01 6.0961E-04
 1.8571E+01 6.0551E-04
 1.8857E+01 6.0136E-04
 1.9143E+01 5.9719E-04
 1.9429E+01 5.9297E-04
 1.9714E+01 5.8874E-04
 2.0000E+01 5.8447E-04
 2.0286E+01 5.8017E-04
 2.0571E+01 5.7584E-04
 2.0857E+01 5.7148E-04
 2.1143E+01 5.6710E-04
 2.1429E+01 5.6269E-04
 2.1714E+01 5.5826E-04
 2.2000E+01 5.5380E-04
 2.2286E+01 5.4932E-04
 2.2571E+01 5.4483E-04
 2.2857E+01 5.4031E-04
 2.3143E+01 5.3577E-04
 2.3429E+01 5.3122E-04
 2.3714E+01 5.2665E-04
 2.4000E+01 5.2206E-04
 2.4286E+01 5.1746E-04
 2.4571E+01 5.1285E-04
 2.4857E+01 5.0822E-04
 2.5143E+01 5.0358E-04
 2.5429E+01 4.9894E-04
 2.5714E+01 4.9428E-04
 2.6000E+01 4.8962E-04
 2.6286E+01 4.8495E-04
 2.6571E+01 4.8027E-04
 2.6857E+01 4.7559E-04
 2.7143E+01 4.7091E-04
 2.7429E+01 4.6622E-04
 2.7714E+01 4.6153E-04
 2.8000E+01 4.5684E-04
 2.8286E+01 4.5215E-04
 2.8571E+01 4.4747E-04
 2.8857E+01 4.4278E-04
 2.9143E+01 4.3809E-04
 2.9429E+01 4.3342E-04
 2.9714E+01 4.2874E-04
 3.0000E+01 4.2407E-04
 3.0286E+01 4.1941E-04
 3.0571E+01 4.1476E-04
 3.0857E+01 4.1011E-04
 3.1143E+01 4.0547E-04
 3.1429E+01 4.0084E-04
 3.1714E+01 3.9623E-04
 3.2000E+01 3.9163E-04
 3.2286E+01 3.8704E-04
 3.2571E+01 3.8246E-04
 3.2857E+01 3.7791E-04
 3.3143E+01 3.7336E-04
 3.3429E+01 3.6884E-04
 3.3714E+01 3.6432E-04
 3.4000E+01 3.5983E-04
 3.4286E+01 3.5535E-04
 3.4571E+01 3.5089E-04
 3.4857E+01 3.4645E-04
 3.5143E+01 3.4204E-04
 3.5429E+01 3.3764E-04
 3.5714E+01 3.3327E-04
 3.6000E+01 3.2892E-04
 3.6286E+01 3.2459E-04
 3.6571E+01 3.2028E-04
 3.6857E+01 3.1600E-04
 3.7143E+01 3.1174E-04
 3.7429E+01 3.0751E-04
 3.7714E+01 3.0331E-04
 3.8000E+01 2.9912E-04
 3.8286E+01 2.9497E-04
 3.8571E+01 2.9085E-04
 3.8857E+01 2.8674E-04
 3.9143E+01 2.8268E-04
 3.9429E+01 2.7863E-04
 3.9714E+01 2.7462E-04
 4.0000E+01 2.7063E-04
 4.0286E+01 2.6668E-04
 4.0571E+01 2.6276E-04
 4.0857E+01 2.5886E-04
 4.1143E+01 2.5500E-04
 4.1429E+01 2.5117E-04
 4.1714E+01 2.4737E-04
 4.2000E+01 2.4361E-04
 4.2286E+01 2.3987E-04
 4.2571E+01 2.3617E-04
 4.2857E+01 2.3250E-04
 4.3143E+01 2.2886E-04
 4.3429E+01 2.2526E-04
 4.3714E+01 2.2169E-04
 4.4000E+01 2.1815E-04
 4.4286E+01 2.1465E-04
 4.4571E+01 2.1118E-04
 4.4857E+01 2.0774E-04
 4.5143E+01 2.0434E-04
 4.5429E+01 2.0098E-04
 4.5714E+01 1.9765E-04
 4.6000E+01 1.9435E-04
 4.6286E+01 1.9109E-04
 4.6571E+01 1.8786E-04
 4.6857E+01 1.8467E-04
 4.7143E+01 1.8152E-04
 4.7429E+01 1.7840E-04
 4.7714E+01 1.7532E-04
 4.8000E+01 1.7227E-04
 4.8286E+01 1.6925E-04
 4.8571E+01 1.6627E-04
 4.8857E+01 1.6333E-04
 4.9143E+01 1.6042E-04
 4.9429E+01 1.5755E-04
 4.9714E+01 1.5471E-04
 5.0000E+01 1.5191E-04
 5.0286E+01 1.4914E-04
 5.0571E+01 1.4641E-04
 5.0857E+01 1.4372E-04
 5.1143E+01 1.4106E-04
 5.1429E+01 1.3843E-04
 5.1714E+01 1.3584E-04
 5.2000E+01 1.3328E-04
 5.2286E+01 1.3075E-04
 5.2571E+01 1.2826E-04
 5.2857E+01 1.2581E-04
 5.3143E+01 1.2339E-04
 5.3429E+01 1.2100E-04
 5.3714E+01 1.1865E-04
 5.4000E+01 1.1633E-04
 5.4286E+01 1.1404E-04
 5.4571E+01 1.1179E-04
 5.4857E+01 1.0957E-04
 5.5143E+01 1.0738E-04
 5.5429E+01 1.0523E-04
 5.5714E+01 1.0310E-04
 5.6000E+01 1.0101E-04
 5.6286E+01 9.8955E-05
 5.6571E+01 9.6928E-05
 5.6857E+01 9.4933E-05
 5.7143E+01 9.2969E-05
 5.7429E+01 9.1037E-05
 5.7714E+01 8.9136E-05
 5.8000E+01 8.7265E-05
 5.8286E+01 8.5425E-05
 5.8571E+01 8.3614E-05
 5.8857E+01 8.1834E-05
 5.9143E+01 8.0082E-05
 5.9429E+01 7.8361E-05
 5.9714E+01 7.6668E-05
 6.0000E+01 7.5005E-05
 6.0286E+01 7.3369E-05
 6.0571E+01 7.1762E-05
 6.0857E+01 7.0183E-05
 6.1143E+01 6.8631E-05
 6.1429E+01 6.7107E-05
 6.1714E+01 6.5609E-05
 6.2000E+01 6.4138E-05
 6.2286E+01 6.2692E-05
 6.2571E+01 6.1274E-05
 6.2857E+01 5.9881E-05
 6.3143E+01 5.8514E-05
 6.3429E+01 5.7172E-05
 6.3714E+01 5.5855E-05
 6.4000E+01 5.4563E-05
 6.4286E+01 5.3295E-05
 6.4571E+01 5.2050E-05
 6.4857E+01 5.0829E-05
 6.5143E+01 4.9632E-05
 6.5429E+01 4.8457E-05
 6.5714E+01 4.7306E-05
 6.6000E+01 4.6178E-05
 6.6286E+01 4.5072E-05
 6.6571E+01 4.3988E-05
 6.6857E+01 4.2925E-05
 6.7143E+01 4.1884E-05
 6.7429E+01 4.0863E-05
 6.7714E+01 3.9863E-05
 6.8000E+01 3.8884E-05
 6.8286E+01 3.7924E-05
 6.8571E+01 3.6984E-05
 6.8857E+01 3.6065E-05
 6.9143E+01 3.5164E-05
 6.9429E+01 3.4282E-05
 6.9714E+01 3.3419E-05
 7.0000E+01 3.2574E-05
 7.0286E+01 3.1746E-05
 7.0571E+01 3.0937E-05
 7.0857E+01 3.0145E-05
 7.1143E+01 2.9370E-05
 7.1429E+01 2.8613E-05
 7.1714E+01 2.7872E-05
 7.2000E+01 2.7147E-05
 7.2286E+01 2.6439E-05
 7.2571E+01 2.5746E-05
 7.2857E+01 2.5069E-05
 7.3143E+01 2.4407E-05
 7.3429E+01 2.3759E-05
 7.3714E+01 2.3127E-05
 7.4000E+01 2.2509E-05
 7.4286E+01 2.1905E-05
 7.4571E+01 2.1315E-05
 7.4857E+01 2.0739E-05
 7.5143E+01 2.0177E-05
 7.5429E+01 1.9628E-05
 7.5714E+01 1.9091E-05
 7.6000E+01 1.8568E-05
 7.6286E+01 1.8056E-05
 7.6571E+01 1.7557E-05
 7.6857E+01 1.7070E-05
 7.7143E+01 1.6594E-05
 7.7429E+01 1.6131E-05
 7.7714E+01 1.5679E-05
 7.8000E+01 1.5238E-05
 7.8286E+01 1.4808E-05
 7.8571E+01 1.4388E-05
 7.8857E+01 1.3979E-05
 7.9143E+01 1.3579E-05
 7.9429E+01 1.3191E-05
 7.9714E+01 1.2811E-05
 8.0000E+01 1.2441E-05
 8.0286E+01 1.2081E-05
 8.0571E+01 1.1730E-05
 8.0857E+01 1.1388E-05
 8.1143E+01 1.1055E-05
 8.1429E+01 1.0730E-05
 8.1714E+01 1.0414E-05
 8.2000E+01 1.0106E-05
 8.2286E+01 9.8060E-06
 8.2571E+01 9.5140E-06
 8.2857E+01 9.2298E-06
 8.3143E+01 8.9530E-06
 8.3429E+01 8.6836E-06
 8.3714E+01 8.4217E-06
 8.4000E+01 8.1667E-06
 8.4286E+01 7.9187E-06
 8.4571E+01 7.6773E-06
 8.4857E+01 7.4427E-06
 8.5143E+01 7.2143E-06
 8.5429E+01 6.9924E-06
 8.5714E+01 6.7762E-06
 8.6000E+01 6.5664E-06
 8.6286E+01 6.3621E-06
 8.6571E+01 6.1637E-06
 8.6857E+01 5.9707E-06
 8.7143E+01 5.7832E-06
 8.7429E+01 5.6009E-06
 8.7714E+01 5.4239E-06
 8.8000E+01 5.2519E-06
 8.8286E+01 5.0849E-06
 8.8571E+01 4.9225E-06
 8.8857E+01 4.7650E-06
 8.9143E+01 4.6120E-06
 8.9429E+01 4.4635E-06
 8.9714E+01 4.3193E-06
 9.0000E+01 4.1794E-06
 9.0286E+01 4.0435E-06
 9.0571E+01 3.9118E-06
 9.0857E+01 3.7839E-06
 9.1143E+01 3.6596E-06
 9.1429E+01 3.5392E-06
 9.1714E+01 3.4223E-06
 9.2000E+01 3.3089E-06
 9.2286E+01 3.1989E-06
 9.2571E+01 3.0924E-06
 9.2857E+01 2.9890E-06
 9.3143E+01 2.8888E-06
 9.3429E+01 2.7916E-06
 9.3714E+01 2.6975E-06
 9.4000E+01 2.6063E-06
 9.4286E+01 2.5178E-06
 9.4571E+01 2.4322E-06
 9.4857E+01 2.3492E-06
 9.5143E+01 2.2687E-06
 9.5429E+01 2.1908E-06
 9.5714E+01 2.1154E-06
 9.6000E+01 2.0422E-06
 9.6286E+01 1.9715E-06
 9.6571E+01 1.9030E-06
 9.6857E+01 1.8368E-06
 9.7143E+01 1.7727E-06
 9.7429E+01 1.7106E-06
 9.7714E+01 1.6506E-06
 9.8000E+01 1.5924E-06
 9.8286E+01 1.5362E-06
 9.8571E+01 1.4817E-06
 9.8857E+01 1.4291E-06
 9.9143E+01 1.3781E-06
 9.9429E+01 1.3288E-06
 9.9714E+01 1.2811E-06
 1.0000E+02 1.2351E-06
 1.0029E+02 1.1906E-06
 1.0057E+02 1.1476E-06
 1.0086E+02 1.1060E-06
 1.0114E+02 1.0658E-06
 1.0143E+02 1.0269E-06
 1.0171E+02 9.8944E-07
 1.0200E+02 9.5314E-07
 1.0229E+02 9.1823E-07
 1.0257E+02 8.8437E-07
 1.0286E+02 8.5165E-07
 1.0314E+02 8.2012E-07
 1.0343E+02 7.8956E-07
 1.0371E+02 7.6019E-07
 1.0400E+02 7.3171E-07
 1.0429E+02 7.0433E-07
 1.0457E+02 6.7779E-07
 1.0486E+02 6.5234E-07
 1.0514E+02 6.2762E-07
 1.0543E+02 6.0392E-07
 1.0571E+02 5.8104E-07
 1.0600E+02 5.5891E-07
 1.0629E+02 5.3766E-07
 1.0657E+02 5.1708E-07
 1.0686E+02 4.9722E-07
 1.0714E+02 4.7803E-07
 1.0743E+02 4.5957E-07
 1.0771E+02 4.4175E-07
 1.0800E+02 4.2463E-07
 1.0829E+02 4.0813E-07
 1.0857E+02 3.9218E-07
 1.0886E+02 3.7688E-07
 1.0914E+02 3.6212E-07
 1.0943E+02 3.4786E-07
 1.0971E+02 3.3417E-07
 1.1000E+02 3.2096E-07
 1.1029E+02 3.0825E-07
 1.1057E+02 2.9605E-07
 1.1086E+02 2.8426E-07
 1.1114E+02 2.7292E-07
 1.1143E+02 2.6200E-07
 1.1171E+02 2.5148E-07
 1.1200E+02 2.4136E-07
 1.1229E+02 2.3163E-07
 1.1257E+02 2.2224E-07
 1.1286E+02 2.1324E-07
 1.1314E+02 2.0458E-07
 1.1343E+02 1.9624E-07
 1.1371E+02 1.8828E-07
 1.1400E+02 1.8058E-07
 1.1429E+02 1.7322E-07
 1.1457E+02 1.6609E-07
 1.1486E+02 1.5927E-07
 1.1514E+02 1.5268E-07
 1.1543E+02 1.4633E-07
 1.1571E+02 1.4028E-07
 1.1600E+02 1.3441E-07
 1.1629E+02 1.2884E-07
 1.1657E+02 1.2344E-07
 1.1686E+02 1.1830E-07
 1.1714E+02 1.1334E-07
 1.1743E+02 1.0856E-07
 1.1771E+02 1.0400E-07
 1.1800E+02 9.9588E-08
 1.1829E+02 9.5377E-08
 1.1857E+02 9.1316E-08
 1.1886E+02 8.7422E-08
 1.1914E+02 8.3685E-08
 1.1943E+02 8.0103E-08
 1.1971E+02 7.6664E-08
 1.2000E+02 7.3380E-08
 1.2029E+02 7.0206E-08
 1.2057E+02 6.7180E-08
 1.2086E+02 6.4265E-08
 1.2114E+02 6.1473E-08
 1.2143E+02 5.8803E-08
 1.2171E+02 5.6238E-08
 1.2200E+02 5.3796E-08
 1.2229E+02 5.1444E-08
 1.2257E+02 4.9193E-08
 1.2286E+02 4.7035E-08
 1.2314E+02 4.4957E-08
 1.2343E+02 4.2959E-08
 1.2371E+02 4.1042E-08
 1.2400E+02 3.9215E-08
 1.2429E+02 3.7459E-08
 1.2457E+02 3.5774E-08
 1.2486E+02 3.4176E-08
 1.2514E+02 3.2642E-08
 1.2543E+02 3.1171E-08
 1.2571E+02 2.9772E-08
 1.2600E+02 2.8435E-08
 1.2629E+02 2.7153E-08
 1.2657E+02 2.5924E-08
 1.2686E+02 2.4754E-08
 1.2714E+02 2.3627E-08
 1.2743E+02 2.2564E-08
 1.2771E+02 2.1530E-08
 1.2800E+02 2.0541E-08
 1.2829E+02 1.9605E-08
 1.2857E+02 1.8696E-08
 1.2886E+02 1.7837E-08
 1.2914E+02 1.7003E-08
 1.2943E+02 1.6224E-08
 1.2971E+02 1.5471E-08
 1.3000E+02 1.4754E-08
 1.3029E+02 1.4072E-08
 1.3057E+02 1.3414E-08
 1.3086E+02 1.2787E-08
 1.3114E+02 1.2180E-08
 1.3143E+02 1.1604E-08
 1.3171E+02 1.1058E-08
 1.3200E+02 1.0540E-08
 1.3229E+02 1.0038E-08
 1.3257E+02 9.5704E-09
 1.3286E+02 9.1172E-09
 1.3314E+02 8.6785E-09
 1.3343E+02 8.2731E-09
 1.3371E+02 7.8837E-09
 1.3400E+02 7.5047E-09
 1.3429E+02 7.1481E-09
 1.3457E+02 6.7992E-09
 1.3486E+02 6.4716E-09
 1.3514E+02 6.1574E-09
 1.3543E+02 5.8601E-09
 1.3571E+02 5.5780E-09
 1.3600E+02 5.3015E-09
 1.3629E+02 5.0438E-09
 1.3657E+02 4.7910E-09
 1.3686E+02 4.5562E-09
 1.3714E+02 4.3271E-09
 1.3743E+02 4.1143E-09
 1.3771E+02 3.9134E-09
 1.3800E+02 3.7200E-09
 1.3829E+02 3.5391E-09
 1.3857E+02 3.3671E-09
 1.3886E+02 3.1992E-09
 1.3914E+02 3.0403E-09
 1.3943E+02 2.8894E-09
 1.3971E+02 2.7420E-09
 1.4000E+02 2.6072E-09
 1.4029E+02 2.4732E-09
 1.4057E+02 2.3457E-09
 1.4086E+02 2.2285E-09
 1.4114E+02 2.1146E-09
 1.4143E+02 2.0101E-09
 1.4171E+02 1.9101E-09
 1.4200E+02 1.8108E-09
 1.4229E+02 1.7210E-09
 1.4257E+02 1.6311E-09
 1.4286E+02 1.5501E-09
 1.4314E+02 1.4707E-09
 1.4343E+02 1.3984E-09
 1.4371E+02 1.3277E-09
 1.4400E+02 1.2579E-09
 1.4429E+02 1.1964E-09
 1.4457E+02 1.1346E-09
 1.4486E+02 1.0766E-09
 1.4514E+02 1.0188E-09
 1.4543E+02 9.6721E-10
 1.4571E+02 9.1606E-10
 1.4600E+02 8.6799E-10
 1.4629E+02 8.2228E-10
 1.4657E+02 7.7950E-10
 1.4686E+02 7.3815E-10
 1.4714E+02 7.0064E-10
 1.4743E+02 6.6449E-10
 1.4771E+02 6.2885E-10
 1.4800E+02 5.9530E-10
 1.4829E+02 5.6492E-10
 1.4857E+02 5.3409E-10
 1.4886E+02 5.0567E-10
 1.4914E+02 4.7980E-10
 1.4943E+02 4.5343E-10
 1.4971E+02 4.3041E-10
 1.5000E+02 4.0580E-10
 1.5029E+02 3.8481E-10
 1.5057E+02 3.6390E-10
 1.5086E+02 3.4432E-10
 1.5114E+02 3.2488E-10
 1.5143E+02 3.0716E-10
 1.5171E+02 2.9022E-10
 1.5200E+02 2.7475E-10
 1.5229E+02 2.5916E-10
 1.5257E+02 2.4465E-10
 1.5286E+02 2.3158E-10
 1.5314E+02 2.1912E-10
 1.5343E+02 2.0847E-10
 1.5371E+02 1.9652E-10
 1.5400E+02 1.8585E-10
 1.5429E+02 1.7536E-10
 1.5457E+02 1.6615E-10
 1.5486E+02 1.5714E-10
 1.5514E+02 1.4864E-10
 1.5543E+02 1.4033E-10
 1.5571E+02 1.3242E-10
 1.5600E+02 1.2466E-10
 1.5629E+02 1.1774E-10
 1.5657E+02 1.1102E-10
 1.5686E+02 1.0472E-10
 1.5714E+02 9.8825E-11
 1.5743E+02 9.3824E-11
 1.5771E+02 8.8258E-11
 1.5800E+02 8.3229E-11
 1.5829E+02 7.9249E-11
 1.5857E+02 7.4232E-11
 1.5886E+02 7.0715E-11
 1.5914E+02 6.6403E-11
 1.5943E+02 6.2526E-11
 1.5971E+02 5.9152E-11
 1.6000E+02 5.5501E-11
 1.6029E+02 5.2906E-11
 1.6057E+02 4.9603E-11
 1.6086E+02 4.6575E-11
 1.6114E+02 4.3811E-11
 1.6143E+02 4.0890E-11
 1.6171E+02 3.8593E-11
 1.6200E+02 3.6148E-11
 1.6229E+02 3.4388E-11
 1.6257E+02 3.2261E-11
 1.6286E+02 3.0476E-11
 1.6314E+02 2.8696E-11
 1.6343E+02 2.7230E-11
 1.6371E+02 2.5759E-11
 1.6400E+02 2.4089E-11
 1.6429E+02 2.2880E-11
 1.6457E+02 2.1204E-11
 1.6486E+02 2.0021E-11
 1.6514E+02 1.8555E-11
 1.6543E+02 1.7621E-11
 1.6571E+02 1.6459E-11
 1.6600E+02 1.5556E-11
 1.6629E+02 1.4817E-11
 1.6657E+02 1.3925E-11
 1.6686E+02 1.3243E-11
 1.6714E+02 1.2423E-11
 1.6743E+02 1.1842E-11
 1.6771E+02 1.1090E-11
 1.6800E+02 1.0522E-11
 1.6829E+02 9.8793E-12
 1.6857E+02 9.4426E-12
 1.6886E+02 8.8246E-12
 1.6914E+02 8.2316E-12
 1.6943E+02 7.6692E-12
 1.6971E+02 7.2757E-12
 1.7000E+02 6.7437E-12
 1.7029E+02 6.2551E-12
 1.7057E+02 5.9490E-12
 1.7086E+02 5.5451E-12
 1.7114E+02 5.3521E-12
 1.7143E+02 4.9102E-12
 1.7171E+02 4.7008E-12
 1.7200E+02 4.3592E-12
 1.7229E+02 4.0553E-12
 1.7257E+02 3.7654E-12
 1.7286E+02 3.4580E-12
 1.7314E+02 3.2564E-12
 1.7343E+02 3.0017E-12
 1.7371E+02 2.9586E-12
 1.7400E+02 2.7563E-12
 1.7429E+02 2.6065E-12
 1.7457E+02 2.4858E-12
 1.7486E+02 2.2776E-12
 1.7514E+02 2.0827E-12
 1.7543E+02 1.9696E-12
 1.7571E+02 1.8653E-12
 1.7600E+02 1.7479E-12
 1.7629E+02 1.7066E-12
 1.7657E+02 1.5635E-12
 1.7686E+02 1.4890E-12
 1.7714E+02 1.3630E-12
 1.7743E+02 1.2110E-12
 1.7771E+02 1.1074E-12
 1.7800E+02 1.0319E-12
 1.7829E+02 9.7967E-13
 1.7857E+02 9.3898E-13
 1.7886E+02 8.6504E-13
 1.7914E+02 8.5021E-13
 1.7943E+02 8.1425E-13
 1.7971E+02 7.6644E-13
 1.8000E+02 7.2677E-13
 1.8029E+02 6.3131E-13
 1.8057E+02 5.9866E-13
 1.8086E+02 5.1819E-13
 1.8114E+02 5.0861E-13
 1.8143E+02 4.6357E-13
 1.8171E+02 4.4668E-13
 1.8200E+02 4.2740E-13
 1.8229E+02 3.9176E-13
 1.8257E+02 3.8707E-13
 1.8286E+02 3.5020E-13
 1.8314E+02 3.3599E-13
 1.8343E+02 3.1523E-13
 1.8371E+02 2.9941E-13
 1.8400E+02 2.8038E-13
 1.8429E+02 2.5438E-13
 1.8457E+02 2.6013E-13
 1.8486E+02 2.4557E-13
 1.8514E+02 2.4368E-13
 1.8543E+02 2.4751E-13
 1.8571E+02 2.3713E-13
 1.8600E+02 2.2305E-13
 1.8629E+02 1.8816E-13
 1.8657E+02 1.6900E-13
 1.8686E+02 1.6287E-13
 1.8714E+02 1.4578E-13
 1.8743E+02 1.4955E-13
 1.8771E+02 1.4346E-13
 1.8800E+02 1.2808E-13
 1.8829E+02 1.5617E-13
 1.8857E+02 1.0763E-13
 1.8886E+02 1.1636E-13
 1.8914E+02 9.2210E-14
 1.8943E+02 8.1385E-14
 1.8971E+02 7.9861E-14
 1.9000E+02 6.3874E-14
 1.9029E+02 7.1269E-14
 1.9057E+02 5.5276E-14
 1.9086E+02 6.5320E-14
 1.9114E+02 4.4424E-14
 1.9143E+02 4.9426E-14
 1.9171E+02 3.6176E-14
 1.9200E+02 3.1436E-14
 1.9229E+02 3.5750E-14
 1.9257E+02 2.9470E-14
 1.9286E+02 2.8588E-14
 1.9314E+02 2.6593E-14
 1.9343E+02 2.6225E-14
 1.9371E+02 3.0256E-14
 1.9400E+02 2.0176E-14
 1.9429E+02 2.1093E-14
 1.9457E+02 2.1508E-14
 1.9486E+02 1.2815E-14
 1.9514E+02 1.1352E-14
 1.9543E+02 6.5167E-15
 1.9571E+02 1.0105E-14
 1.9600E+02 2.6541E-15
 1.9629E+02 3.5035E-15
 1.9657E+02 2.0674E-15
 1.9686E+02 4.9733E-16
 1.9714E+02 4.3265E-16
 1.9743E+02 1.4299E-16
 1.9771E+02 1.7366E-17
 1.9800E+02 1.9711E-18
 1.9829E+02 3.1701E-19
 1.9857E+02 1.4059E-19
 1.9886E+02 2.2938E-19
 1.9914E+02 1.9031E-19
 1.9943E+02 7.9326E-20
 1.9971E+02 2.3486E-20
 2.0000E+02 2.2654E-21
