 0.0000E+00 8.2185E-04
 2.8571E-01 8.2175E-04
 5.7143E-01 8.2162E-04
 8.5714E-01 8.2139E-04
 1.1429E+00 8.2105E-04
 1.4286E+00 8.2065E-04
 1.7143E+00 8.2013E-04
 2.0000E+00 8.1953E-04
 2.2857E+00 8.1882E-04
 2.5714E+00 8.1803E-04
 2.8571E+00 8.1714E-04
 3.1429E+00 8.1615E-04
 3.4286E+00 8.1509E-04
 3.7143E+00 8.1392E-04
 4.0000E+00 8.1267E-04
 4.2857E+00 8.1132E-04
 4.5714E+00 8.0989E-04
 4.8571E+00 8.0836E-04
 5.1429E+00 8.0675E-04
 5.4286E+00 8.0505E-04
 5.7143E+00 8.0327E-04
 6.0000E+00 8.0139E-04
 6.2857E+00 7.9943E-04
 6.5714E+00 7.9738E-04
 6.8571E+00 7.9525E-04
 7.1429E+00 7.9304E-04
 7.4286E+00 7.9073E-04
 7.7143E+00 7.8835E-04
 8.0000E+00 7.8587E-04
 8.2857E+00 7.8332E-04
 8.5714E+00 7.8069E-04
 8.8571E+00 7.7798E-04
 9.1429E+00 7.7519E-04
 9.4286E+00 7.7232E-04
 9.7143E+00 7.6938E-04
 1.0000E+01 7.6636E-04
 1.0286E+01 7.6326E-04
 1.0571E+01 7.6009E-04
 1.0857E+01 7.5686E-04
 1.1143E+01 7.5354E-04
 1.1429E+01 7.5016E-04
 1.1714E+01 7.4671E-04
 1.2000E+01 7.4318E-04
 1.2286E+01 7.3959E-04
 1.2571E+01 7.3594E-04
 1.2857E+01 7.3222E-04
 1.3143E+01 7.2843E-04
 1.3429E+01 7.2458E-04
 1.3714E+01 7.2067E-04
 1.4000E+01 7.1670E-04
 1.4286E+01 7.1266E-04
 1.4571E+01 7.0858E-04
 1.4857E+01 7.0443E-04
 1.5143E+01 7.0023E-04
 1.5429E+01 6.9597E-04
 1.5714E+01 6.9166E-04
 1.6000E+01 6.8730E-04
 1.6286E+01 6.8289E-04
 1.6571E+01 6.7842E-04
 1.6857E+01 6.7392E-04
 1.7143E+01 6.6936E-04
 1.7429E+01 6.6476E-04
 1.7714E+01 6.6012E-04
 1.8000E+01 6.5544E-04
 1.8286E+01 6.5072E-04
 1.8571E+01 6.4595E-04
 1.8857E+01 6.4115E-04
 1.9143E+01 6.3631E-04
 1.9429E+01 6.3143E-04
 1.9714E+01 6.2652E-04
 2.0000E+01 6.2158E-04
 2.0286E+01 6.1661E-04
 2.0571E+01 6.1160E-04
 2.0857E+01 6.0657E-04
 2.1143E+01 6.0151E-04
 2.1429E+01 5.9643E-04
 2.1714E+01 5.9132E-04
 2.2000E+01 5.8618E-04
 2.2286E+01 5.8103E-04
 2.2571E+01 5.7585E-04
 2.2857E+01 5.7066E-04
 2.3143E+01 5.6545E-04
 2.3429E+01 5.6022E-04
 2.3714E+01 5.5498E-04
 2.4000E+01 5.4973E-04
 2.4286E+01 5.4446E-04
 2.4571E+01 5.3918E-04
 2.4857E+01 5.3389E-04
 2.5143E+01 5.2860E-04
 2.5429E+01 5.2329E-04
 2.5714E+01 5.1798E-04
 2.6000E+01 5.1267E-04
 2.6286E+01 5.0735E-04
 2.6571E+01 5.0204E-04
 2.6857E+01 4.9672E-04
 2.7143E+01 4.9140E-04
 2.7429E+01 4.8609E-04
 2.7714E+01 4.8077E-04
 2.8000E+01 4.7546E-04
 2.8286E+01 4.7015E-04
 2.8571E+01 4.6485E-04
 2.8857E+01 4.5955E-04
 2.9143E+01 4.5427E-04
 2.9429E+01 4.4899E-04
 2.9714E+01 4.4373E-04
 3.0000E+01 4.3848E-04
 3.0286E+01 4.3324E-04
 3.0571E+01 4.2801E-04
 3.0857E+01 4.2280E-04
 3.1143E+01 4.1761E-04
 3.1429E+01 4.1243E-04
 3.1714E+01 4.0727E-04
 3.2000E+01 4.0213E-04
 3.2286E+01 3.9700E-04
 3.2571E+01 3.9190E-04
 3.2857E+01 3.8683E-04
 3.3143E+01 3.8177E-04
 3.3429E+01 3.7673E-04
 3.3714E+01 3.7173E-04
 3.4000E+01 3.6674E-04
 3.4286E+01 3.6178E-04
 3.4571E+01 3.5685E-04
 3.4857E+01 3.5194E-04
 3.5143E+01 3.4707E-04
 3.5429E+01 3.4222E-04
 3.5714E+01 3.3740E-04
 3.6000E+01 3.3261E-04
 3.6286E+01 3.2785E-04
 3.6571E+01 3.2312E-04
 3.6857E+01 3.1842E-04
 3.7143E+01 3.1376E-04
 3.7429E+01 3.0913E-04
 3.7714E+01 3.0453E-04
 3.8000E+01 2.9997E-04
 3.8286E+01 2.9544E-04
 3.8571E+01 2.9095E-04
 3.8857E+01 2.8649E-04
 3.9143E+01 2.8206E-04
 3.9429E+01 2.7768E-04
 3.9714E+01 2.7333E-04
 4.0000E+01 2.6902E-04
 4.0286E+01 2.6475E-04
 4.0571E+01 2.6051E-04
 4.0857E+01 2.5632E-04
 4.1143E+01 2.5216E-04
 4.1429E+01 2.4804E-04
 4.1714E+01 2.4396E-04
 4.2000E+01 2.3993E-04
 4.2286E+01 2.3593E-04
 4.2571E+01 2.3197E-04
 4.2857E+01 2.2805E-04
 4.3143E+01 2.2418E-04
 4.3429E+01 2.2034E-04
 4.3714E+01 2.1655E-04
 4.4000E+01 2.1279E-04
 4.4286E+01 2.0908E-04
 4.4571E+01 2.0541E-04
 4.4857E+01 2.0178E-04
 4.5143E+01 1.9819E-04
 4.5429E+01 1.9464E-04
 4.5714E+01 1.9113E-04
 4.6000E+01 1.8767E-04
 4.6286E+01 1.8425E-04
 4.6571E+01 1.8087E-04
 4.6857E+01 1.7753E-04
 4.7143E+01 1.7423E-04
 4.7429E+01 1.7098E-04
 4.7714E+01 1.6777E-04
 4.8000E+01 1.6460E-04
 4.8286E+01 1.6147E-04
 4.8571E+01 1.5838E-04
 4.8857E+01 1.5533E-04
 4.9143E+01 1.5233E-04
 4.9429E+01 1.4936E-04
 4.9714E+01 1.4644E-04
 5.0000E+01 1.4355E-04
 5.0286E+01 1.4071E-04
 5.0571E+01 1.3791E-04
 5.0857E+01 1.3515E-04
 5.1143E+01 1.3243E-04
 5.1429E+01 1.2975E-04
 5.1714E+01 1.2711E-04
 5.2000E+01 1.2451E-04
 5.2286E+01 1.2194E-04
 5.2571E+01 1.1942E-04
 5.2857E+01 1.1694E-04
 5.3143E+01 1.1449E-04
 5.3429E+01 1.1208E-04
 5.3714E+01 1.0971E-04
 5.4000E+01 1.0738E-04
 5.4286E+01 1.0509E-04
 5.4571E+01 1.0283E-04
 5.4857E+01 1.0061E-04
 5.5143E+01 9.8432E-05
 5.5429E+01 9.6286E-05
 5.5714E+01 9.4176E-05
 5.6000E+01 9.2102E-05
 5.6286E+01 9.0063E-05
 5.6571E+01 8.8059E-05
 5.6857E+01 8.6089E-05
 5.7143E+01 8.4155E-05
 5.7429E+01 8.2254E-05
 5.7714E+01 8.0387E-05
 5.8000E+01 7.8553E-05
 5.8286E+01 7.6753E-05
 5.8571E+01 7.4986E-05
 5.8857E+01 7.3251E-05
 5.9143E+01 7.1548E-05
 5.9429E+01 6.9876E-05
 5.9714E+01 6.8235E-05
 6.0000E+01 6.6625E-05
 6.0286E+01 6.5046E-05
 6.0571E+01 6.3497E-05
 6.0857E+01 6.1978E-05
 6.1143E+01 6.0489E-05
 6.1429E+01 5.9029E-05
 6.1714E+01 5.7597E-05
 6.2000E+01 5.6194E-05
 6.2286E+01 5.4819E-05
 6.2571E+01 5.3471E-05
 6.2857E+01 5.2151E-05
 6.3143E+01 5.0857E-05
 6.3429E+01 4.9589E-05
 6.3714E+01 4.8348E-05
 6.4000E+01 4.7132E-05
 6.4286E+01 4.5941E-05
 6.4571E+01 4.4776E-05
 6.4857E+01 4.3635E-05
 6.5143E+01 4.2518E-05
 6.5429E+01 4.1426E-05
 6.5714E+01 4.0357E-05
 6.6000E+01 3.9310E-05
 6.6286E+01 3.8287E-05
 6.6571E+01 3.7286E-05
 6.6857E+01 3.6308E-05
 6.7143E+01 3.5350E-05
 6.7429E+01 3.4415E-05
 6.7714E+01 3.3499E-05
 6.8000E+01 3.2605E-05
 6.8286E+01 3.1731E-05
 6.8571E+01 3.0876E-05
 6.8857E+01 3.0041E-05
 6.9143E+01 2.9226E-05
 6.9429E+01 2.8430E-05
 6.9714E+01 2.7652E-05
 7.0000E+01 2.6892E-05
 7.0286E+01 2.6151E-05
 7.0571E+01 2.5426E-05
 7.0857E+01 2.4719E-05
 7.1143E+01 2.4029E-05
 7.1429E+01 2.3356E-05
 7.1714E+01 2.2699E-05
 7.2000E+01 2.2057E-05
 7.2286E+01 2.1432E-05
 7.2571E+01 2.0821E-05
 7.2857E+01 2.0227E-05
 7.3143E+01 1.9646E-05
 7.3429E+01 1.9080E-05
 7.3714E+01 1.8528E-05
 7.4000E+01 1.7991E-05
 7.4286E+01 1.7467E-05
 7.4571E+01 1.6956E-05
 7.4857E+01 1.6458E-05
 7.5143E+01 1.5973E-05
 7.5429E+01 1.5500E-05
 7.5714E+01 1.5039E-05
 7.6000E+01 1.4591E-05
 7.6286E+01 1.4155E-05
 7.6571E+01 1.3730E-05
 7.6857E+01 1.3316E-05
 7.7143E+01 1.2914E-05
 7.7429E+01 1.2522E-05
 7.7714E+01 1.2140E-05
 7.8000E+01 1.1770E-05
 7.8286E+01 1.1408E-05
 7.8571E+01 1.1057E-05
 7.8857E+01 1.0716E-05
 7.9143E+01 1.0383E-05
 7.9429E+01 1.0060E-05
 7.9714E+01 9.7457E-06
 8.0000E+01 9.4398E-06
 8.0286E+01 9.1429E-06
 8.0571E+01 8.8538E-06
 8.0857E+01 8.5735E-06
 8.1143E+01 8.3006E-06
 8.1429E+01 8.0361E-06
 8.1714E+01 7.7786E-06
 8.2000E+01 7.5290E-06
 8.2286E+01 7.2865E-06
 8.2571E+01 7.0509E-06
 8.2857E+01 6.8222E-06
 8.3143E+01 6.6002E-06
 8.3429E+01 6.3847E-06
 8.3714E+01 6.1753E-06
 8.4000E+01 5.9722E-06
 8.4286E+01 5.7753E-06
 8.4571E+01 5.5840E-06
 8.4857E+01 5.3985E-06
 8.5143E+01 5.2185E-06
 8.5429E+01 5.0439E-06
 8.5714E+01 4.8746E-06
 8.6000E+01 4.7104E-06
 8.6286E+01 4.5513E-06
 8.6571E+01 4.3971E-06
 8.6857E+01 4.2479E-06
 8.7143E+01 4.1030E-06
 8.7429E+01 3.9628E-06
 8.7714E+01 3.8269E-06
 8.8000E+01 3.6952E-06
 8.8286E+01 3.5675E-06
 8.8571E+01 3.4440E-06
 8.8857E+01 3.3242E-06
 8.9143E+01 3.2085E-06
 8.9429E+01 3.0962E-06
 8.9714E+01 2.9877E-06
 9.0000E+01 2.8826E-06
 9.0286E+01 2.7808E-06
 9.0571E+01 2.6823E-06
 9.0857E+01 2.5870E-06
 9.1143E+01 2.4947E-06
 9.1429E+01 2.4055E-06
 9.1714E+01 2.3192E-06
 9.2000E+01 2.2358E-06
 9.2286E+01 2.1552E-06
 9.2571E+01 2.0772E-06
 9.2857E+01 2.0019E-06
 9.3143E+01 1.9290E-06
 9.3429E+01 1.8587E-06
 9.3714E+01 1.7906E-06
 9.4000E+01 1.7248E-06
 9.4286E+01 1.6611E-06
 9.4571E+01 1.5997E-06
 9.4857E+01 1.5403E-06
 9.5143E+01 1.4830E-06
 9.5429E+01 1.4277E-06
 9.5714E+01 1.3743E-06
 9.6000E+01 1.3228E-06
 9.6286E+01 1.2730E-06
 9.6571E+01 1.2249E-06
 9.6857E+01 1.1785E-06
 9.7143E+01 1.1338E-06
 9.7429E+01 1.0907E-06
 9.7714E+01 1.0491E-06
 9.8000E+01 1.0091E-06
 9.8286E+01 9.7034E-07
 9.8571E+01 9.3296E-07
 9.8857E+01 8.9694E-07
 9.9143E+01 8.6221E-07
 9.9429E+01 8.2865E-07
 9.9714E+01 7.9629E-07
 1.0000E+02 7.6520E-07
 1.0029E+02 7.3522E-07
 1.0057E+02 7.0641E-07
 1.0086E+02 6.7864E-07
 1.0114E+02 6.5182E-07
 1.0143E+02 6.2604E-07
 1.0171E+02 6.0118E-07
 1.0200E+02 5.7729E-07
 1.0229E+02 5.5427E-07
 1.0257E+02 5.3208E-07
 1.0286E+02 5.1077E-07
 1.0314E+02 4.9021E-07
 1.0343E+02 4.7044E-07
 1.0371E+02 4.5138E-07
 1.0400E+02 4.3306E-07
 1.0429E+02 4.1543E-07
 1.0457E+02 3.9846E-07
 1.0486E+02 3.8216E-07
 1.0514E+02 3.6650E-07
 1.0543E+02 3.5148E-07
 1.0571E+02 3.3697E-07
 1.0600E+02 3.2306E-07
 1.0629E+02 3.0966E-07
 1.0657E+02 2.9677E-07
 1.0686E+02 2.8440E-07
 1.0714E+02 2.7251E-07
 1.0743E+02 2.6111E-07
 1.0771E+02 2.5015E-07
 1.0800E+02 2.3960E-07
 1.0829E+02 2.2950E-07
 1.0857E+02 2.1975E-07
 1.0886E+02 2.1042E-07
 1.0914E+02 2.0147E-07
 1.0943E+02 1.9286E-07
 1.0971E+02 1.8460E-07
 1.1000E+02 1.7668E-07
 1.1029E+02 1.6908E-07
 1.1057E+02 1.6180E-07
 1.1086E+02 1.5482E-07
 1.1114E+02 1.4810E-07
 1.1143E+02 1.4169E-07
 1.1171E+02 1.3549E-07
 1.1200E+02 1.2960E-07
 1.1229E+02 1.2391E-07
 1.1257E+02 1.1850E-07
 1.1286E+02 1.1331E-07
 1.1314E+02 1.0831E-07
 1.1343E+02 1.0353E-07
 1.1371E+02 9.8945E-08
 1.1400E+02 9.4560E-08
 1.1429E+02 9.0363E-08
 1.1457E+02 8.6332E-08
 1.1486E+02 8.2461E-08
 1.1514E+02 7.8774E-08
 1.1543E+02 7.5238E-08
 1.1571E+02 7.1853E-08
 1.1600E+02 6.8605E-08
 1.1629E+02 6.5492E-08
 1.1657E+02 6.2522E-08
 1.1686E+02 5.9701E-08
 1.1714E+02 5.6973E-08
 1.1743E+02 5.4388E-08
 1.1771E+02 5.1899E-08
 1.1800E+02 4.9515E-08
 1.1829E+02 4.7238E-08
 1.1857E+02 4.5046E-08
 1.1886E+02 4.2971E-08
 1.1914E+02 4.0974E-08
 1.1943E+02 3.9070E-08
 1.1971E+02 3.7244E-08
 1.2000E+02 3.5498E-08
 1.2029E+02 3.3841E-08
 1.2057E+02 3.2256E-08
 1.2086E+02 3.0743E-08
 1.2114E+02 2.9297E-08
 1.2143E+02 2.7899E-08
 1.2171E+02 2.6588E-08
 1.2200E+02 2.5314E-08
 1.2229E+02 2.4113E-08
 1.2257E+02 2.2960E-08
 1.2286E+02 2.1863E-08
 1.2314E+02 2.0825E-08
 1.2343E+02 1.9815E-08
 1.2371E+02 1.8867E-08
 1.2400E+02 1.7957E-08
 1.2429E+02 1.7092E-08
 1.2457E+02 1.6255E-08
 1.2486E+02 1.5470E-08
 1.2514E+02 1.4711E-08
 1.2543E+02 1.3996E-08
 1.2571E+02 1.3313E-08
 1.2600E+02 1.2660E-08
 1.2629E+02 1.2040E-08
 1.2657E+02 1.1446E-08
 1.2686E+02 1.0881E-08
 1.2714E+02 1.0345E-08
 1.2743E+02 9.8419E-09
 1.2771E+02 9.3591E-09
 1.2800E+02 8.8976E-09
 1.2829E+02 8.4531E-09
 1.2857E+02 8.0333E-09
 1.2886E+02 7.6255E-09
 1.2914E+02 7.2423E-09
 1.2943E+02 6.8755E-09
 1.2971E+02 6.5278E-09
 1.3000E+02 6.1987E-09
 1.3029E+02 5.8823E-09
 1.3057E+02 5.5880E-09
 1.3086E+02 5.3044E-09
 1.3114E+02 5.0374E-09
 1.3143E+02 4.7827E-09
 1.3171E+02 4.5333E-09
 1.3200E+02 4.3021E-09
 1.3229E+02 4.0773E-09
 1.3257E+02 3.8698E-09
 1.3286E+02 3.6673E-09
 1.3314E+02 3.4782E-09
 1.3343E+02 3.3017E-09
 1.3371E+02 3.1297E-09
 1.3400E+02 2.9679E-09
 1.3429E+02 2.8093E-09
 1.3457E+02 2.6641E-09
 1.3486E+02 2.5233E-09
 1.3514E+02 2.3908E-09
 1.3543E+02 2.2638E-09
 1.3571E+02 2.1475E-09
 1.3600E+02 2.0345E-09
 1.3629E+02 1.9293E-09
 1.3657E+02 1.8298E-09
 1.3686E+02 1.7319E-09
 1.3714E+02 1.6384E-09
 1.3743E+02 1.5509E-09
 1.3771E+02 1.4666E-09
 1.3800E+02 1.3887E-09
 1.3829E+02 1.3144E-09
 1.3857E+02 1.2430E-09
 1.3886E+02 1.1780E-09
 1.3914E+02 1.1134E-09
 1.3943E+02 1.0552E-09
 1.3971E+02 9.9540E-10
 1.4000E+02 9.4322E-10
 1.4029E+02 8.9187E-10
 1.4057E+02 8.4419E-10
 1.4086E+02 7.9826E-10
 1.4114E+02 7.5422E-10
 1.4143E+02 7.1261E-10
 1.4171E+02 6.7118E-10
 1.4200E+02 6.3537E-10
 1.4229E+02 5.9887E-10
 1.4257E+02 5.6586E-10
 1.4286E+02 5.3315E-10
 1.4314E+02 5.0507E-10
 1.4343E+02 4.7760E-10
 1.4371E+02 4.5154E-10
 1.4400E+02 4.2712E-10
 1.4429E+02 4.0203E-10
 1.4457E+02 3.8009E-10
 1.4486E+02 3.5752E-10
 1.4514E+02 3.3729E-10
 1.4543E+02 3.1831E-10
 1.4571E+02 3.0089E-10
 1.4600E+02 2.8406E-10
 1.4629E+02 2.6800E-10
 1.4657E+02 2.5272E-10
 1.4686E+02 2.3808E-10
 1.4714E+02 2.2435E-10
 1.4743E+02 2.1154E-10
 1.4771E+02 1.9970E-10
 1.4800E+02 1.8822E-10
 1.4829E+02 1.7808E-10
 1.4857E+02 1.6781E-10
 1.4886E+02 1.5881E-10
 1.4914E+02 1.4933E-10
 1.4943E+02 1.4058E-10
 1.4971E+02 1.3222E-10
 1.5000E+02 1.2437E-10
 1.5029E+02 1.1675E-10
 1.5057E+02 1.0991E-10
 1.5086E+02 1.0369E-10
 1.5114E+02 9.7160E-11
 1.5143E+02 9.1971E-11
 1.5171E+02 8.6381E-11
 1.5200E+02 8.1584E-11
 1.5229E+02 7.6838E-11
 1.5257E+02 7.2497E-11
 1.5286E+02 6.7937E-11
 1.5314E+02 6.4135E-11
 1.5343E+02 6.0417E-11
 1.5371E+02 5.6672E-11
 1.5400E+02 5.3710E-11
 1.5429E+02 5.0550E-11
 1.5457E+02 4.7867E-11
 1.5486E+02 4.4738E-11
 1.5514E+02 4.2171E-11
 1.5543E+02 3.9486E-11
 1.5571E+02 3.6977E-11
 1.5600E+02 3.4765E-11
 1.5629E+02 3.2638E-11
 1.5657E+02 3.0814E-11
 1.5686E+02 2.8704E-11
 1.5714E+02 2.6949E-11
 1.5743E+02 2.5244E-11
 1.5771E+02 2.3636E-11
 1.5800E+02 2.2059E-11
 1.5829E+02 2.0825E-11
 1.5857E+02 1.9497E-11
 1.5886E+02 1.8234E-11
 1.5914E+02 1.7237E-11
 1.5943E+02 1.6019E-11
 1.5971E+02 1.5026E-11
 1.6000E+02 1.3980E-11
 1.6029E+02 1.3088E-11
 1.6057E+02 1.2180E-11
 1.6086E+02 1.1471E-11
 1.6114E+02 1.0862E-11
 1.6143E+02 1.0240E-11
 1.6171E+02 9.7123E-12
 1.6200E+02 9.2545E-12
 1.6229E+02 8.6247E-12
 1.6257E+02 8.0999E-12
 1.6286E+02 7.5591E-12
 1.6314E+02 7.0555E-12
 1.6343E+02 6.6834E-12
 1.6371E+02 6.0959E-12
 1.6400E+02 5.8551E-12
 1.6429E+02 5.3689E-12
 1.6457E+02 5.1167E-12
 1.6486E+02 4.7968E-12
 1.6514E+02 4.5107E-12
 1.6543E+02 4.2980E-12
 1.6571E+02 4.0265E-12
 1.6600E+02 3.8207E-12
 1.6629E+02 3.5048E-12
 1.6657E+02 3.3584E-12
 1.6686E+02 3.0340E-12
 1.6714E+02 2.8456E-12
 1.6743E+02 2.5587E-12
 1.6771E+02 2.4060E-12
 1.6800E+02 2.2049E-12
 1.6829E+02 2.0388E-12
 1.6857E+02 1.9785E-12
 1.6886E+02 1.8394E-12
 1.6914E+02 1.7421E-12
 1.6943E+02 1.6234E-12
 1.6971E+02 1.5661E-12
 1.7000E+02 1.4245E-12
 1.7029E+02 1.3583E-12
 1.7057E+02 1.2375E-12
 1.7086E+02 1.1792E-12
 1.7114E+02 1.1080E-12
 1.7143E+02 9.7842E-13
 1.7171E+02 9.4135E-13
 1.7200E+02 8.6742E-13
 1.7229E+02 8.2612E-13
 1.7257E+02 7.5798E-13
 1.7286E+02 6.9611E-13
 1.7314E+02 6.7537E-13
 1.7343E+02 6.2311E-13
 1.7371E+02 5.8918E-13
 1.7400E+02 5.4247E-13
 1.7429E+02 5.3517E-13
 1.7457E+02 4.9762E-13
 1.7486E+02 4.4005E-13
 1.7514E+02 4.0582E-13
 1.7543E+02 3.7215E-13
 1.7571E+02 3.4420E-13
 1.7600E+02 2.9604E-13
 1.7629E+02 2.9357E-13
 1.7657E+02 2.8607E-13
 1.7686E+02 2.5744E-13
 1.7714E+02 2.4446E-13
 1.7743E+02 2.3388E-13
 1.7771E+02 2.1383E-13
 1.7800E+02 2.2226E-13
 1.7829E+02 2.0077E-13
 1.7857E+02 1.9176E-13
 1.7886E+02 1.7478E-13
 1.7914E+02 1.4693E-13
 1.7943E+02 1.5670E-13
 1.7971E+02 1.3386E-13
 1.8000E+02 1.3287E-13
 1.8029E+02 1.1814E-13
 1.8057E+02 1.0909E-13
 1.8086E+02 1.2264E-13
 1.8114E+02 1.0606E-13
 1.8143E+02 1.0567E-13
 1.8171E+02 9.3133E-14
 1.8200E+02 8.8671E-14
 1.8229E+02 7.5440E-14
 1.8257E+02 5.7750E-14
 1.8286E+02 5.3999E-14
 1.8314E+02 4.3144E-14
 1.8343E+02 4.2971E-14
 1.8371E+02 3.8968E-14
 1.8400E+02 4.3624E-14
 1.8429E+02 3.5909E-14
 1.8457E+02 4.1852E-14
 1.8486E+02 3.2866E-14
 1.8514E+02 2.3250E-14
 1.8543E+02 2.3539E-14
 1.8571E+02 2.4218E-14
 1.8600E+02 3.1083E-14
 1.8629E+02 1.8270E-14
 1.8657E+02 3.5696E-14
 1.8686E+02 2.4359E-14
 1.8714E+02 3.1953E-14
 1.8743E+02 3.7328E-14
 1.8771E+02 2.1600E-14
 1.8800E+02 2.8903E-14
 1.8829E+02 2.2337E-14
 1.8857E+02 1.6715E-14
 1.8886E+02 1.3451E-14
 1.8914E+02 7.2974E-15
 1.8943E+02 8.6632E-15
 1.8971E+02 8.2137E-15
 1.9000E+02 3.8934E-15
 1.9029E+02 1.0522E-14
 1.9057E+02 7.1217E-15
 1.9086E+02 1.3545E-14
 1.9114E+02 1.1075E-14
 1.9143E+02 4.1058E-15
 1.9171E+02 5.3504E-15
 1.9200E+02 3.9741E-15
 1.9229E+02 5.5147E-15
 1.9257E+02 4.6135E-15
 1.9286E+02 3.4867E-15
 1.9314E+02 3.2472E-15
 1.9343E+02 7.0913E-15
 1.9371E+02 7.5802E-15
 1.9400E+02 7.2522E-15
 1.9429E+02 7.7440E-15
 1.9457E+02 8.4594E-15
 1.9486E+02 5.7071E-15
 1.9514E+02 3.0409E-15
 1.9543E+02 1.4858E-15
 1.9571E+02 1.8239E-16
 1.9600E+02 7.8588E-16
 1.9629E+02 4.7410E-16
 1.9657E+02 7.7936E-16
 1.9686E+02 2.2984E-16
 1.9714E+02 8.8937E-17
 1.9743E+02 7.7881E-17
 1.9771E+02 1.0954E-17
 1.9800E+02 2.3020E-20
 1.9829E+02 8.6789E-19
 1.9857E+02 4.0866E-19
 1.9886E+02 4.9969E-20
 1.9914E+02 2.6594E-20
 1.9943E+02 3.2768E-20
 1.9971E+02 1.3728E-20
 2.0000E+02 5.3869E-21
