 0.0000E+00 8.3077E-04
 2.8571E-01 8.3065E-04
 5.7143E-01 8.3049E-04
 8.5714E-01 8.3021E-04
 1.1429E+00 8.2989E-04
 1.4286E+00 8.2943E-04
 1.7143E+00 8.2891E-04
 2.0000E+00 8.2826E-04
 2.2857E+00 8.2755E-04
 2.5714E+00 8.2674E-04
 2.8571E+00 8.2584E-04
 3.1429E+00 8.2483E-04
 3.4286E+00 8.2373E-04
 3.7143E+00 8.2253E-04
 4.0000E+00 8.2124E-04
 4.2857E+00 8.1988E-04
 4.5714E+00 8.1841E-04
 4.8571E+00 8.1686E-04
 5.1429E+00 8.1522E-04
 5.4286E+00 8.1349E-04
 5.7143E+00 8.1166E-04
 6.0000E+00 8.0975E-04
 6.2857E+00 8.0775E-04
 6.5714E+00 8.0566E-04
 6.8571E+00 8.0348E-04
 7.1429E+00 8.0121E-04
 7.4286E+00 7.9886E-04
 7.7143E+00 7.9642E-04
 8.0000E+00 7.9390E-04
 8.2857E+00 7.9130E-04
 8.5714E+00 7.8862E-04
 8.8571E+00 7.8584E-04
 9.1429E+00 7.8300E-04
 9.4286E+00 7.8007E-04
 9.7143E+00 7.7707E-04
 1.0000E+01 7.7398E-04
 1.0286E+01 7.7083E-04
 1.0571E+01 7.6760E-04
 1.0857E+01 7.6429E-04
 1.1143E+01 7.6091E-04
 1.1429E+01 7.5745E-04
 1.1714E+01 7.5393E-04
 1.2000E+01 7.5033E-04
 1.2286E+01 7.4667E-04
 1.2571E+01 7.4294E-04
 1.2857E+01 7.3914E-04
 1.3143E+01 7.3527E-04
 1.3429E+01 7.3134E-04
 1.3714E+01 7.2736E-04
 1.4000E+01 7.2331E-04
 1.4286E+01 7.1920E-04
 1.4571E+01 7.1502E-04
 1.4857E+01 7.1079E-04
 1.5143E+01 7.0651E-04
 1.5429E+01 7.0217E-04
 1.5714E+01 6.9778E-04
 1.6000E+01 6.9334E-04
 1.6286E+01 6.8884E-04
 1.6571E+01 6.8429E-04
 1.6857E+01 6.7969E-04
 1.7143E+01 6.7505E-04
 1.7429E+01 6.7036E-04
 1.7714E+01 6.6563E-04
 1.8000E+01 6.6085E-04
 1.8286E+01 6.5604E-04
 1.8571E+01 6.5119E-04
 1.8857E+01 6.4629E-04
 1.9143E+01 6.4136E-04
 1.9429E+01 6.3640E-04
 1.9714E+01 6.3139E-04
 2.0000E+01 6.2636E-04
 2.0286E+01 6.2129E-04
 2.0571E+01 6.1620E-04
 2.0857E+01 6.1107E-04
 2.1143E+01 6.0592E-04
 2.1429E+01 6.0075E-04
 2.1714E+01 5.9554E-04
 2.2000E+01 5.9032E-04
 2.2286E+01 5.8507E-04
 2.2571E+01 5.7981E-04
 2.2857E+01 5.7452E-04
 2.3143E+01 5.6922E-04
 2.3429E+01 5.6391E-04
 2.3714E+01 5.5858E-04
 2.4000E+01 5.5323E-04
 2.4286E+01 5.4787E-04
 2.4571E+01 5.4250E-04
 2.4857E+01 5.3712E-04
 2.5143E+01 5.3173E-04
 2.5429E+01 5.2634E-04
 2.5714E+01 5.2094E-04
 2.6000E+01 5.1554E-04
 2.6286E+01 5.1014E-04
 2.6571E+01 5.0474E-04
 2.6857E+01 4.9933E-04
 2.7143E+01 4.9393E-04
 2.7429E+01 4.8853E-04
 2.7714E+01 4.8313E-04
 2.8000E+01 4.7773E-04
 2.8286E+01 4.7235E-04
 2.8571E+01 4.6696E-04
 2.8857E+01 4.6159E-04
 2.9143E+01 4.5623E-04
 2.9429E+01 4.5087E-04
 2.9714E+01 4.4553E-04
 3.0000E+01 4.4020E-04
 3.0286E+01 4.3489E-04
 3.0571E+01 4.2959E-04
 3.0857E+01 4.2430E-04
 3.1143E+01 4.1903E-04
 3.1429E+01 4.1378E-04
 3.1714E+01 4.0855E-04
 3.2000E+01 4.0334E-04
 3.2286E+01 3.9815E-04
 3.2571E+01 3.9297E-04
 3.2857E+01 3.8782E-04
 3.3143E+01 3.8270E-04
 3.3429E+01 3.7760E-04
 3.3714E+01 3.7252E-04
 3.4000E+01 3.6748E-04
 3.4286E+01 3.6245E-04
 3.4571E+01 3.5746E-04
 3.4857E+01 3.5249E-04
 3.5143E+01 3.4756E-04
 3.5429E+01 3.4265E-04
 3.5714E+01 3.3777E-04
 3.6000E+01 3.3292E-04
 3.6286E+01 3.2811E-04
 3.6571E+01 3.2332E-04
 3.6857E+01 3.1858E-04
 3.7143E+01 3.1386E-04
 3.7429E+01 3.0918E-04
 3.7714E+01 3.0453E-04
 3.8000E+01 2.9992E-04
 3.8286E+01 2.9534E-04
 3.8571E+01 2.9081E-04
 3.8857E+01 2.8630E-04
 3.9143E+01 2.8184E-04
 3.9429E+01 2.7741E-04
 3.9714E+01 2.7302E-04
 4.0000E+01 2.6867E-04
 4.0286E+01 2.6436E-04
 4.0571E+01 2.6009E-04
 4.0857E+01 2.5585E-04
 4.1143E+01 2.5166E-04
 4.1429E+01 2.4750E-04
 4.1714E+01 2.4339E-04
 4.2000E+01 2.3932E-04
 4.2286E+01 2.3529E-04
 4.2571E+01 2.3130E-04
 4.2857E+01 2.2735E-04
 4.3143E+01 2.2345E-04
 4.3429E+01 2.1958E-04
 4.3714E+01 2.1576E-04
 4.4000E+01 2.1198E-04
 4.4286E+01 2.0824E-04
 4.4571E+01 2.0455E-04
 4.4857E+01 2.0089E-04
 4.5143E+01 1.9728E-04
 4.5429E+01 1.9371E-04
 4.5714E+01 1.9019E-04
 4.6000E+01 1.8670E-04
 4.6286E+01 1.8327E-04
 4.6571E+01 1.7987E-04
 4.6857E+01 1.7651E-04
 4.7143E+01 1.7320E-04
 4.7429E+01 1.6993E-04
 4.7714E+01 1.6670E-04
 4.8000E+01 1.6352E-04
 4.8286E+01 1.6038E-04
 4.8571E+01 1.5728E-04
 4.8857E+01 1.5422E-04
 4.9143E+01 1.5120E-04
 4.9429E+01 1.4823E-04
 4.9714E+01 1.4530E-04
 5.0000E+01 1.4241E-04
 5.0286E+01 1.3956E-04
 5.0571E+01 1.3675E-04
 5.0857E+01 1.3398E-04
 5.1143E+01 1.3126E-04
 5.1429E+01 1.2857E-04
 5.1714E+01 1.2593E-04
 5.2000E+01 1.2332E-04
 5.2286E+01 1.2076E-04
 5.2571E+01 1.1823E-04
 5.2857E+01 1.1575E-04
 5.3143E+01 1.1330E-04
 5.3429E+01 1.1089E-04
 5.3714E+01 1.0853E-04
 5.4000E+01 1.0620E-04
 5.4286E+01 1.0390E-04
 5.4571E+01 1.0165E-04
 5.4857E+01 9.9432E-05
 5.5143E+01 9.7252E-05
 5.5429E+01 9.5110E-05
 5.5714E+01 9.3003E-05
 5.6000E+01 9.0932E-05
 5.6286E+01 8.8897E-05
 5.6571E+01 8.6898E-05
 5.6857E+01 8.4934E-05
 5.7143E+01 8.3005E-05
 5.7429E+01 8.1111E-05
 5.7714E+01 7.9251E-05
 5.8000E+01 7.7424E-05
 5.8286E+01 7.5631E-05
 5.8571E+01 7.3871E-05
 5.8857E+01 7.2144E-05
 5.9143E+01 7.0448E-05
 5.9429E+01 6.8784E-05
 5.9714E+01 6.7153E-05
 6.0000E+01 6.5552E-05
 6.0286E+01 6.3983E-05
 6.0571E+01 6.2443E-05
 6.0857E+01 6.0934E-05
 6.1143E+01 5.9453E-05
 6.1429E+01 5.8002E-05
 6.1714E+01 5.6581E-05
 6.2000E+01 5.5187E-05
 6.2286E+01 5.3822E-05
 6.2571E+01 5.2485E-05
 6.2857E+01 5.1176E-05
 6.3143E+01 4.9892E-05
 6.3429E+01 4.8636E-05
 6.3714E+01 4.7405E-05
 6.4000E+01 4.6200E-05
 6.4286E+01 4.5021E-05
 6.4571E+01 4.3867E-05
 6.4857E+01 4.2738E-05
 6.5143E+01 4.1633E-05
 6.5429E+01 4.0552E-05
 6.5714E+01 3.9495E-05
 6.6000E+01 3.8460E-05
 6.6286E+01 3.7448E-05
 6.6571E+01 3.6458E-05
 6.6857E+01 3.5491E-05
 6.7143E+01 3.4544E-05
 6.7429E+01 3.3620E-05
 6.7714E+01 3.2717E-05
 6.8000E+01 3.1834E-05
 6.8286E+01 3.0972E-05
 6.8571E+01 3.0130E-05
 6.8857E+01 2.9307E-05
 6.9143E+01 2.8503E-05
 6.9429E+01 2.7719E-05
 6.9714E+01 2.6952E-05
 7.0000E+01 2.6204E-05
 7.0286E+01 2.5473E-05
 7.0571E+01 2.4761E-05
 7.0857E+01 2.4065E-05
 7.1143E+01 2.3386E-05
 7.1429E+01 2.2723E-05
 7.1714E+01 2.2076E-05
 7.2000E+01 2.1446E-05
 7.2286E+01 2.0831E-05
 7.2571E+01 2.0231E-05
 7.2857E+01 1.9647E-05
 7.3143E+01 1.9078E-05
 7.3429E+01 1.8523E-05
 7.3714E+01 1.7982E-05
 7.4000E+01 1.7454E-05
 7.4286E+01 1.6940E-05
 7.4571E+01 1.6440E-05
 7.4857E+01 1.5952E-05
 7.5143E+01 1.5477E-05
 7.5429E+01 1.5015E-05
 7.5714E+01 1.4564E-05
 7.6000E+01 1.4126E-05
 7.6286E+01 1.3699E-05
 7.6571E+01 1.3282E-05
 7.6857E+01 1.2878E-05
 7.7143E+01 1.2484E-05
 7.7429E+01 1.2101E-05
 7.7714E+01 1.1728E-05
 7.8000E+01 1.1366E-05
 7.8286E+01 1.1014E-05
 7.8571E+01 1.0671E-05
 7.8857E+01 1.0338E-05
 7.9143E+01 1.0014E-05
 7.9429E+01 9.6991E-06
 7.9714E+01 9.3930E-06
 8.0000E+01 9.0955E-06
 8.0286E+01 8.8064E-06
 8.0571E+01 8.5255E-06
 8.0857E+01 8.2525E-06
 8.1143E+01 7.9874E-06
 8.1429E+01 7.7301E-06
 8.1714E+01 7.4801E-06
 8.2000E+01 7.2373E-06
 8.2286E+01 7.0012E-06
 8.2571E+01 6.7722E-06
 8.2857E+01 6.5502E-06
 8.3143E+01 6.3346E-06
 8.3429E+01 6.1257E-06
 8.3714E+01 5.9228E-06
 8.4000E+01 5.7260E-06
 8.4286E+01 5.5352E-06
 8.4571E+01 5.3502E-06
 8.4857E+01 5.1705E-06
 8.5143E+01 4.9965E-06
 8.5429E+01 4.8276E-06
 8.5714E+01 4.6640E-06
 8.6000E+01 4.5054E-06
 8.6286E+01 4.3518E-06
 8.6571E+01 4.2028E-06
 8.6857E+01 4.0586E-06
 8.7143E+01 3.9185E-06
 8.7429E+01 3.7830E-06
 8.7714E+01 3.6518E-06
 8.8000E+01 3.5248E-06
 8.8286E+01 3.4018E-06
 8.8571E+01 3.2828E-06
 8.8857E+01 3.1677E-06
 8.9143E+01 3.0562E-06
 8.9429E+01 2.9482E-06
 8.9714E+01 2.8437E-06
 9.0000E+01 2.7426E-06
 9.0286E+01 2.6446E-06
 9.0571E+01 2.5499E-06
 9.0857E+01 2.4583E-06
 9.1143E+01 2.3697E-06
 9.1429E+01 2.2841E-06
 9.1714E+01 2.2013E-06
 9.2000E+01 2.1213E-06
 9.2286E+01 2.0439E-06
 9.2571E+01 1.9691E-06
 9.2857E+01 1.8969E-06
 9.3143E+01 1.8271E-06
 9.3429E+01 1.7598E-06
 9.3714E+01 1.6947E-06
 9.4000E+01 1.6318E-06
 9.4286E+01 1.5710E-06
 9.4571E+01 1.5123E-06
 9.4857E+01 1.4556E-06
 9.5143E+01 1.4009E-06
 9.5429E+01 1.3481E-06
 9.5714E+01 1.2971E-06
 9.6000E+01 1.2479E-06
 9.6286E+01 1.2005E-06
 9.6571E+01 1.1547E-06
 9.6857E+01 1.1106E-06
 9.7143E+01 1.0680E-06
 9.7429E+01 1.0269E-06
 9.7714E+01 9.8726E-07
 9.8000E+01 9.4912E-07
 9.8286E+01 9.1234E-07
 9.8571E+01 8.7681E-07
 9.8857E+01 8.4265E-07
 9.9143E+01 8.0968E-07
 9.9429E+01 7.7793E-07
 9.9714E+01 7.4732E-07
 1.0000E+02 7.1782E-07
 1.0029E+02 6.8941E-07
 1.0057E+02 6.6210E-07
 1.0086E+02 6.3574E-07
 1.0114E+02 6.1041E-07
 1.0143E+02 5.8603E-07
 1.0171E+02 5.6250E-07
 1.0200E+02 5.3991E-07
 1.0229E+02 5.1809E-07
 1.0257E+02 4.9714E-07
 1.0286E+02 4.7702E-07
 1.0314E+02 4.5762E-07
 1.0343E+02 4.3897E-07
 1.0371E+02 4.2100E-07
 1.0400E+02 4.0372E-07
 1.0429E+02 3.8714E-07
 1.0457E+02 3.7118E-07
 1.0486E+02 3.5584E-07
 1.0514E+02 3.4109E-07
 1.0543E+02 3.2693E-07
 1.0571E+02 3.1328E-07
 1.0600E+02 3.0019E-07
 1.0629E+02 2.8759E-07
 1.0657E+02 2.7552E-07
 1.0686E+02 2.6390E-07
 1.0714E+02 2.5272E-07
 1.0743E+02 2.4204E-07
 1.0771E+02 2.3174E-07
 1.0800E+02 2.2189E-07
 1.0829E+02 2.1242E-07
 1.0857E+02 2.0336E-07
 1.0886E+02 1.9464E-07
 1.0914E+02 1.8627E-07
 1.0943E+02 1.7825E-07
 1.0971E+02 1.7054E-07
 1.1000E+02 1.6315E-07
 1.1029E+02 1.5607E-07
 1.1057E+02 1.4923E-07
 1.1086E+02 1.4274E-07
 1.1114E+02 1.3650E-07
 1.1143E+02 1.3052E-07
 1.1171E+02 1.2480E-07
 1.1200E+02 1.1929E-07
 1.1229E+02 1.1403E-07
 1.1257E+02 1.0896E-07
 1.1286E+02 1.0413E-07
 1.1314E+02 9.9503E-08
 1.1343E+02 9.5074E-08
 1.1371E+02 9.0835E-08
 1.1400E+02 8.6757E-08
 1.1429E+02 8.2849E-08
 1.1457E+02 7.9118E-08
 1.1486E+02 7.5549E-08
 1.1514E+02 7.2134E-08
 1.1543E+02 6.8850E-08
 1.1571E+02 6.5729E-08
 1.1600E+02 6.2735E-08
 1.1629E+02 5.9867E-08
 1.1657E+02 5.7115E-08
 1.1686E+02 5.4486E-08
 1.1714E+02 5.1981E-08
 1.1743E+02 4.9566E-08
 1.1771E+02 4.7276E-08
 1.1800E+02 4.5069E-08
 1.1829E+02 4.2988E-08
 1.1857E+02 4.0981E-08
 1.1886E+02 3.9080E-08
 1.1914E+02 3.7256E-08
 1.1943E+02 3.5500E-08
 1.1971E+02 3.3824E-08
 1.2000E+02 3.2220E-08
 1.2029E+02 3.0692E-08
 1.2057E+02 2.9225E-08
 1.2086E+02 2.7833E-08
 1.2114E+02 2.6504E-08
 1.2143E+02 2.5244E-08
 1.2171E+02 2.4041E-08
 1.2200E+02 2.2896E-08
 1.2229E+02 2.1787E-08
 1.2257E+02 2.0748E-08
 1.2286E+02 1.9738E-08
 1.2314E+02 1.8780E-08
 1.2343E+02 1.7873E-08
 1.2371E+02 1.7001E-08
 1.2400E+02 1.6179E-08
 1.2429E+02 1.5391E-08
 1.2457E+02 1.4648E-08
 1.2486E+02 1.3927E-08
 1.2514E+02 1.3237E-08
 1.2543E+02 1.2583E-08
 1.2571E+02 1.1963E-08
 1.2600E+02 1.1372E-08
 1.2629E+02 1.0807E-08
 1.2657E+02 1.0275E-08
 1.2686E+02 9.7628E-09
 1.2714E+02 9.2785E-09
 1.2743E+02 8.8165E-09
 1.2771E+02 8.3712E-09
 1.2800E+02 7.9546E-09
 1.2829E+02 7.5491E-09
 1.2857E+02 7.1696E-09
 1.2886E+02 6.8035E-09
 1.2914E+02 6.4607E-09
 1.2943E+02 6.1312E-09
 1.2971E+02 5.8171E-09
 1.3000E+02 5.5211E-09
 1.3029E+02 5.2345E-09
 1.3057E+02 4.9669E-09
 1.3086E+02 4.7134E-09
 1.3114E+02 4.4739E-09
 1.3143E+02 4.2459E-09
 1.3171E+02 4.0283E-09
 1.3200E+02 3.8189E-09
 1.3229E+02 3.6208E-09
 1.3257E+02 3.4286E-09
 1.3286E+02 3.2489E-09
 1.3314E+02 3.0771E-09
 1.3343E+02 2.9177E-09
 1.3371E+02 2.7632E-09
 1.3400E+02 2.6220E-09
 1.3429E+02 2.4842E-09
 1.3457E+02 2.3552E-09
 1.3486E+02 2.2308E-09
 1.3514E+02 2.1123E-09
 1.3543E+02 2.0011E-09
 1.3571E+02 1.8933E-09
 1.3600E+02 1.7957E-09
 1.3629E+02 1.6962E-09
 1.3657E+02 1.6092E-09
 1.3686E+02 1.5213E-09
 1.3714E+02 1.4390E-09
 1.3743E+02 1.3612E-09
 1.3771E+02 1.2877E-09
 1.3800E+02 1.2175E-09
 1.3829E+02 1.1505E-09
 1.3857E+02 1.0892E-09
 1.3886E+02 1.0289E-09
 1.3914E+02 9.7378E-10
 1.3943E+02 9.2013E-10
 1.3971E+02 8.7111E-10
 1.4000E+02 8.2349E-10
 1.4029E+02 7.7805E-10
 1.4057E+02 7.3445E-10
 1.4086E+02 6.9340E-10
 1.4114E+02 6.5383E-10
 1.4143E+02 6.1714E-10
 1.4171E+02 5.8343E-10
 1.4200E+02 5.5078E-10
 1.4229E+02 5.2080E-10
 1.4257E+02 4.9184E-10
 1.4286E+02 4.6473E-10
 1.4314E+02 4.3819E-10
 1.4343E+02 4.1426E-10
 1.4371E+02 3.9075E-10
 1.4400E+02 3.6864E-10
 1.4429E+02 3.4844E-10
 1.4457E+02 3.2879E-10
 1.4486E+02 3.0991E-10
 1.4514E+02 2.9225E-10
 1.4543E+02 2.7599E-10
 1.4571E+02 2.5947E-10
 1.4600E+02 2.4494E-10
 1.4629E+02 2.3025E-10
 1.4657E+02 2.1758E-10
 1.4686E+02 2.0495E-10
 1.4714E+02 1.9330E-10
 1.4743E+02 1.8221E-10
 1.4771E+02 1.7127E-10
 1.4800E+02 1.6149E-10
 1.4829E+02 1.5152E-10
 1.4857E+02 1.4300E-10
 1.4886E+02 1.3459E-10
 1.4914E+02 1.2734E-10
 1.4943E+02 1.1988E-10
 1.4971E+02 1.1323E-10
 1.5000E+02 1.0674E-10
 1.5029E+02 1.0055E-10
 1.5057E+02 9.4507E-11
 1.5086E+02 8.8945E-11
 1.5114E+02 8.3913E-11
 1.5143E+02 7.8413E-11
 1.5171E+02 7.4157E-11
 1.5200E+02 6.9755E-11
 1.5229E+02 6.5826E-11
 1.5257E+02 6.1951E-11
 1.5286E+02 5.8206E-11
 1.5314E+02 5.5090E-11
 1.5343E+02 5.1582E-11
 1.5371E+02 4.8421E-11
 1.5400E+02 4.5447E-11
 1.5429E+02 4.2570E-11
 1.5457E+02 3.9995E-11
 1.5486E+02 3.7223E-11
 1.5514E+02 3.4716E-11
 1.5543E+02 3.2729E-11
 1.5571E+02 3.0610E-11
 1.5600E+02 2.8785E-11
 1.5629E+02 2.7091E-11
 1.5657E+02 2.5590E-11
 1.5686E+02 2.4108E-11
 1.5714E+02 2.2513E-11
 1.5743E+02 2.1124E-11
 1.5771E+02 1.9779E-11
 1.5800E+02 1.8587E-11
 1.5829E+02 1.7073E-11
 1.5857E+02 1.6171E-11
 1.5886E+02 1.5085E-11
 1.5914E+02 1.4170E-11
 1.5943E+02 1.3340E-11
 1.5971E+02 1.2570E-11
 1.6000E+02 1.1995E-11
 1.6029E+02 1.1196E-11
 1.6057E+02 1.0692E-11
 1.6086E+02 9.9195E-12
 1.6114E+02 9.3644E-12
 1.6143E+02 8.6986E-12
 1.6171E+02 8.3393E-12
 1.6200E+02 7.7379E-12
 1.6229E+02 7.2509E-12
 1.6257E+02 6.7040E-12
 1.6286E+02 6.1933E-12
 1.6314E+02 5.9063E-12
 1.6343E+02 5.4131E-12
 1.6371E+02 5.1372E-12
 1.6400E+02 4.7345E-12
 1.6429E+02 4.5603E-12
 1.6457E+02 4.2006E-12
 1.6486E+02 3.9809E-12
 1.6514E+02 3.7205E-12
 1.6543E+02 3.4733E-12
 1.6571E+02 3.2674E-12
 1.6600E+02 2.9631E-12
 1.6629E+02 2.8106E-12
 1.6657E+02 2.5513E-12
 1.6686E+02 2.4019E-12
 1.6714E+02 2.2491E-12
 1.6743E+02 2.0395E-12
 1.6771E+02 1.9683E-12
 1.6800E+02 1.8832E-12
 1.6829E+02 1.7622E-12
 1.6857E+02 1.6555E-12
 1.6886E+02 1.5587E-12
 1.6914E+02 1.5184E-12
 1.6943E+02 1.4143E-12
 1.6971E+02 1.3021E-12
 1.7000E+02 1.1992E-12
 1.7029E+02 1.0440E-12
 1.7057E+02 9.7316E-13
 1.7086E+02 9.0504E-13
 1.7114E+02 7.9927E-13
 1.7143E+02 7.9552E-13
 1.7171E+02 7.5229E-13
 1.7200E+02 7.1750E-13
 1.7229E+02 6.4318E-13
 1.7257E+02 6.0651E-13
 1.7286E+02 5.7856E-13
 1.7314E+02 5.1877E-13
 1.7343E+02 5.1022E-13
 1.7371E+02 4.3176E-13
 1.7400E+02 4.2563E-13
 1.7429E+02 4.1844E-13
 1.7457E+02 4.0197E-13
 1.7486E+02 3.7996E-13
 1.7514E+02 3.3318E-13
 1.7543E+02 3.0833E-13
 1.7571E+02 3.0344E-13
 1.7600E+02 2.8067E-13
 1.7629E+02 2.4806E-13
 1.7657E+02 2.3336E-13
 1.7686E+02 2.0005E-13
 1.7714E+02 2.2047E-13
 1.7743E+02 1.9211E-13
 1.7771E+02 1.9030E-13
 1.7800E+02 2.1689E-13
 1.7829E+02 1.7008E-13
 1.7857E+02 1.9420E-13
 1.7886E+02 1.5427E-13
 1.7914E+02 1.1990E-13
 1.7943E+02 1.2517E-13
 1.7971E+02 8.8208E-14
 1.8000E+02 9.1922E-14
 1.8029E+02 7.0013E-14
 1.8057E+02 6.3039E-14
 1.8086E+02 5.4608E-14
 1.8114E+02 5.5954E-14
 1.8143E+02 6.5206E-14
 1.8171E+02 6.8723E-14
 1.8200E+02 7.0331E-14
 1.8229E+02 6.3131E-14
 1.8257E+02 5.7290E-14
 1.8286E+02 4.9169E-14
 1.8314E+02 4.9570E-14
 1.8343E+02 3.8042E-14
 1.8371E+02 4.0842E-14
 1.8400E+02 3.2854E-14
 1.8429E+02 3.9106E-14
 1.8457E+02 3.6829E-14
 1.8486E+02 3.2898E-14
 1.8514E+02 2.7765E-14
 1.8543E+02 2.2969E-14
 1.8571E+02 2.2504E-14
 1.8600E+02 1.2309E-14
 1.8629E+02 1.3355E-14
 1.8657E+02 9.7772E-15
 1.8686E+02 1.3785E-14
 1.8714E+02 1.6808E-14
 1.8743E+02 1.2750E-14
 1.8771E+02 1.2035E-14
 1.8800E+02 1.2892E-14
 1.8829E+02 8.0020E-15
 1.8857E+02 1.3725E-14
 1.8886E+02 9.4674E-15
 1.8914E+02 1.1443E-14
 1.8943E+02 1.5776E-14
 1.8971E+02 1.1261E-14
 1.9000E+02 1.5715E-14
 1.9029E+02 1.2202E-14
 1.9057E+02 1.2401E-14
 1.9086E+02 8.1894E-15
 1.9114E+02 6.6696E-15
 1.9143E+02 6.0288E-15
 1.9171E+02 7.0626E-15
 1.9200E+02 8.2906E-15
 1.9229E+02 8.6042E-15
 1.9257E+02 8.6273E-15
 1.9286E+02 5.6813E-15
 1.9314E+02 7.1798E-15
 1.9343E+02 6.6932E-15
 1.9371E+02 3.8950E-15
 1.9400E+02 2.5231E-15
 1.9429E+02 1.4094E-15
 1.9457E+02 6.6442E-16
 1.9486E+02 8.4061E-17
 1.9514E+02 2.3451E-16
 1.9543E+02 2.8095E-16
 1.9571E+02 2.1429E-16
 1.9600E+02 3.1531E-18
 1.9629E+02 3.0675E-16
 1.9657E+02 3.5524E-16
 1.9686E+02 6.0247E-17
 1.9714E+02 3.4347E-17
 1.9743E+02 4.8431E-17
 1.9771E+02 2.2771E-17
 1.9800E+02 6.0980E-18
 1.9829E+02 1.3762E-18
 1.9857E+02 3.8771E-19
 1.9886E+02 1.6676E-19
 1.9914E+02 5.8039E-20
 1.9943E+02 1.8904E-20
 1.9971E+02 2.4914E-21
 2.0000E+02 1.3435E-21
