 0.0000E+00 7.7963E-04
 2.8571E-01 7.7954E-04
 5.7143E-01 7.7942E-04
 8.5714E-01 7.7922E-04
 1.1429E+00 7.7892E-04
 1.4286E+00 7.7852E-04
 1.7143E+00 7.7806E-04
 2.0000E+00 7.7750E-04
 2.2857E+00 7.7688E-04
 2.5714E+00 7.7616E-04
 2.8571E+00 7.7536E-04
 3.1429E+00 7.7447E-04
 3.4286E+00 7.7351E-04
 3.7143E+00 7.7246E-04
 4.0000E+00 7.7133E-04
 4.2857E+00 7.7013E-04
 4.5714E+00 7.6884E-04
 4.8571E+00 7.6746E-04
 5.1429E+00 7.6601E-04
 5.4286E+00 7.6447E-04
 5.7143E+00 7.6286E-04
 6.0000E+00 7.6117E-04
 6.2857E+00 7.5940E-04
 6.5714E+00 7.5755E-04
 6.8571E+00 7.5563E-04
 7.1429E+00 7.5363E-04
 7.4286E+00 7.5157E-04
 7.7143E+00 7.4942E-04
 8.0000E+00 7.4720E-04
 8.2857E+00 7.4491E-04
 8.5714E+00 7.4254E-04
 8.8571E+00 7.4009E-04
 9.1429E+00 7.3757E-04
 9.4286E+00 7.3498E-04
 9.7143E+00 7.3233E-04
 1.0000E+01 7.2960E-04
 1.0286E+01 7.2680E-04
 1.0571E+01 7.2393E-04
 1.0857E+01 7.2101E-04
 1.1143E+01 7.1801E-04
 1.1429E+01 7.1495E-04
 1.1714E+01 7.1182E-04
 1.2000E+01 7.0863E-04
 1.2286E+01 7.0539E-04
 1.2571E+01 7.0208E-04
 1.2857E+01 6.9871E-04
 1.3143E+01 6.9529E-04
 1.3429E+01 6.9179E-04
 1.3714E+01 6.8825E-04
 1.4000E+01 6.8465E-04
 1.4286E+01 6.8100E-04
 1.4571E+01 6.7729E-04
 1.4857E+01 6.7353E-04
 1.5143E+01 6.6972E-04
 1.5429E+01 6.6585E-04
 1.5714E+01 6.6194E-04
 1.6000E+01 6.5798E-04
 1.6286E+01 6.5397E-04
 1.6571E+01 6.4992E-04
 1.6857E+01 6.4583E-04
 1.7143E+01 6.4169E-04
 1.7429E+01 6.3751E-04
 1.7714E+01 6.3328E-04
 1.8000E+01 6.2902E-04
 1.8286E+01 6.2472E-04
 1.8571E+01 6.2037E-04
 1.8857E+01 6.1600E-04
 1.9143E+01 6.1158E-04
 1.9429E+01 6.0714E-04
 1.9714E+01 6.0266E-04
 2.0000E+01 5.9815E-04
 2.0286E+01 5.9361E-04
 2.0571E+01 5.8904E-04
 2.0857E+01 5.8444E-04
 2.1143E+01 5.7982E-04
 2.1429E+01 5.7517E-04
 2.1714E+01 5.7049E-04
 2.2000E+01 5.6579E-04
 2.2286E+01 5.6107E-04
 2.2571E+01 5.5634E-04
 2.2857E+01 5.5157E-04
 2.3143E+01 5.4680E-04
 2.3429E+01 5.4200E-04
 2.3714E+01 5.3719E-04
 2.4000E+01 5.3236E-04
 2.4286E+01 5.2752E-04
 2.4571E+01 5.2267E-04
 2.4857E+01 5.1780E-04
 2.5143E+01 5.1293E-04
 2.5429E+01 5.0804E-04
 2.5714E+01 5.0315E-04
 2.6000E+01 4.9826E-04
 2.6286E+01 4.9336E-04
 2.6571E+01 4.8845E-04
 2.6857E+01 4.8354E-04
 2.7143E+01 4.7862E-04
 2.7429E+01 4.7371E-04
 2.7714E+01 4.6879E-04
 2.8000E+01 4.6388E-04
 2.8286E+01 4.5897E-04
 2.8571E+01 4.5406E-04
 2.8857E+01 4.4915E-04
 2.9143E+01 4.4425E-04
 2.9429E+01 4.3936E-04
 2.9714E+01 4.3447E-04
 3.0000E+01 4.2959E-04
 3.0286E+01 4.2472E-04
 3.0571E+01 4.1986E-04
 3.0857E+01 4.1500E-04
 3.1143E+01 4.1017E-04
 3.1429E+01 4.0534E-04
 3.1714E+01 4.0053E-04
 3.2000E+01 3.9573E-04
 3.2286E+01 3.9095E-04
 3.2571E+01 3.8618E-04
 3.2857E+01 3.8143E-04
 3.3143E+01 3.7670E-04
 3.3429E+01 3.7199E-04
 3.3714E+01 3.6729E-04
 3.4000E+01 3.6262E-04
 3.4286E+01 3.5796E-04
 3.4571E+01 3.5333E-04
 3.4857E+01 3.4872E-04
 3.5143E+01 3.4414E-04
 3.5429E+01 3.3957E-04
 3.5714E+01 3.3503E-04
 3.6000E+01 3.3052E-04
 3.6286E+01 3.2603E-04
 3.6571E+01 3.2156E-04
 3.6857E+01 3.1713E-04
 3.7143E+01 3.1272E-04
 3.7429E+01 3.0834E-04
 3.7714E+01 3.0399E-04
 3.8000E+01 2.9967E-04
 3.8286E+01 2.9538E-04
 3.8571E+01 2.9111E-04
 3.8857E+01 2.8688E-04
 3.9143E+01 2.8268E-04
 3.9429E+01 2.7851E-04
 3.9714E+01 2.7437E-04
 4.0000E+01 2.7026E-04
 4.0286E+01 2.6619E-04
 4.0571E+01 2.6215E-04
 4.0857E+01 2.5815E-04
 4.1143E+01 2.5417E-04
 4.1429E+01 2.5023E-04
 4.1714E+01 2.4633E-04
 4.2000E+01 2.4246E-04
 4.2286E+01 2.3862E-04
 4.2571E+01 2.3482E-04
 4.2857E+01 2.3106E-04
 4.3143E+01 2.2733E-04
 4.3429E+01 2.2364E-04
 4.3714E+01 2.1998E-04
 4.4000E+01 2.1637E-04
 4.4286E+01 2.1278E-04
 4.4571E+01 2.0924E-04
 4.4857E+01 2.0573E-04
 4.5143E+01 2.0226E-04
 4.5429E+01 1.9882E-04
 4.5714E+01 1.9542E-04
 4.6000E+01 1.9206E-04
 4.6286E+01 1.8874E-04
 4.6571E+01 1.8546E-04
 4.6857E+01 1.8221E-04
 4.7143E+01 1.7900E-04
 4.7429E+01 1.7582E-04
 4.7714E+01 1.7269E-04
 4.8000E+01 1.6959E-04
 4.8286E+01 1.6653E-04
 4.8571E+01 1.6351E-04
 4.8857E+01 1.6052E-04
 4.9143E+01 1.5757E-04
 4.9429E+01 1.5466E-04
 4.9714E+01 1.5179E-04
 5.0000E+01 1.4895E-04
 5.0286E+01 1.4615E-04
 5.0571E+01 1.4339E-04
 5.0857E+01 1.4067E-04
 5.1143E+01 1.3798E-04
 5.1429E+01 1.3533E-04
 5.1714E+01 1.3271E-04
 5.2000E+01 1.3013E-04
 5.2286E+01 1.2759E-04
 5.2571E+01 1.2509E-04
 5.2857E+01 1.2262E-04
 5.3143E+01 1.2019E-04
 5.3429E+01 1.1779E-04
 5.3714E+01 1.1542E-04
 5.4000E+01 1.1310E-04
 5.4286E+01 1.1080E-04
 5.4571E+01 1.0854E-04
 5.4857E+01 1.0632E-04
 5.5143E+01 1.0413E-04
 5.5429E+01 1.0198E-04
 5.5714E+01 9.9856E-05
 5.6000E+01 9.7769E-05
 5.6286E+01 9.5714E-05
 5.6571E+01 9.3693E-05
 5.6857E+01 9.1705E-05
 5.7143E+01 8.9749E-05
 5.7429E+01 8.7825E-05
 5.7714E+01 8.5933E-05
 5.8000E+01 8.4072E-05
 5.8286E+01 8.2244E-05
 5.8571E+01 8.0445E-05
 5.8857E+01 7.8678E-05
 5.9143E+01 7.6942E-05
 5.9429E+01 7.5235E-05
 5.9714E+01 7.3559E-05
 6.0000E+01 7.1912E-05
 6.0286E+01 7.0294E-05
 6.0571E+01 6.8706E-05
 6.0857E+01 6.7146E-05
 6.1143E+01 6.5614E-05
 6.1429E+01 6.4110E-05
 6.1714E+01 6.2635E-05
 6.2000E+01 6.1186E-05
 6.2286E+01 5.9765E-05
 6.2571E+01 5.8370E-05
 6.2857E+01 5.7002E-05
 6.3143E+01 5.5660E-05
 6.3429E+01 5.4344E-05
 6.3714E+01 5.3051E-05
 6.4000E+01 5.1786E-05
 6.4286E+01 5.0544E-05
 6.4571E+01 4.9328E-05
 6.4857E+01 4.8136E-05
 6.5143E+01 4.6966E-05
 6.5429E+01 4.5820E-05
 6.5714E+01 4.4698E-05
 6.6000E+01 4.3598E-05
 6.6286E+01 4.2520E-05
 6.6571E+01 4.1465E-05
 6.6857E+01 4.0431E-05
 6.7143E+01 3.9419E-05
 6.7429E+01 3.8428E-05
 6.7714E+01 3.7458E-05
 6.8000E+01 3.6509E-05
 6.8286E+01 3.5580E-05
 6.8571E+01 3.4672E-05
 6.8857E+01 3.3782E-05
 6.9143E+01 3.2912E-05
 6.9429E+01 3.2060E-05
 6.9714E+01 3.1228E-05
 7.0000E+01 3.0413E-05
 7.0286E+01 2.9616E-05
 7.0571E+01 2.8838E-05
 7.0857E+01 2.8077E-05
 7.1143E+01 2.7332E-05
 7.1429E+01 2.6605E-05
 7.1714E+01 2.5894E-05
 7.2000E+01 2.5200E-05
 7.2286E+01 2.4521E-05
 7.2571E+01 2.3859E-05
 7.2857E+01 2.3211E-05
 7.3143E+01 2.2579E-05
 7.3429E+01 2.1961E-05
 7.3714E+01 2.1359E-05
 7.4000E+01 2.0770E-05
 7.4286E+01 2.0196E-05
 7.4571E+01 1.9635E-05
 7.4857E+01 1.9087E-05
 7.5143E+01 1.8554E-05
 7.5429E+01 1.8032E-05
 7.5714E+01 1.7525E-05
 7.6000E+01 1.7029E-05
 7.6286E+01 1.6546E-05
 7.6571E+01 1.6074E-05
 7.6857E+01 1.5615E-05
 7.7143E+01 1.5166E-05
 7.7429E+01 1.4729E-05
 7.7714E+01 1.4303E-05
 7.8000E+01 1.3888E-05
 7.8286E+01 1.3483E-05
 7.8571E+01 1.3089E-05
 7.8857E+01 1.2705E-05
 7.9143E+01 1.2331E-05
 7.9429E+01 1.1966E-05
 7.9714E+01 1.1612E-05
 8.0000E+01 1.1266E-05
 8.0286E+01 1.0930E-05
 8.0571E+01 1.0602E-05
 8.0857E+01 1.0283E-05
 8.1143E+01 9.9730E-06
 8.1429E+01 9.6709E-06
 8.1714E+01 9.3772E-06
 8.2000E+01 9.0910E-06
 8.2286E+01 8.8131E-06
 8.2571E+01 8.5422E-06
 8.2857E+01 8.2790E-06
 8.3143E+01 8.0230E-06
 8.3429E+01 7.7740E-06
 8.3714E+01 7.5320E-06
 8.4000E+01 7.2971E-06
 8.4286E+01 7.0687E-06
 8.4571E+01 6.8465E-06
 8.4857E+01 6.6306E-06
 8.5143E+01 6.4209E-06
 8.5429E+01 6.2168E-06
 8.5714E+01 6.0188E-06
 8.6000E+01 5.8264E-06
 8.6286E+01 5.6394E-06
 8.6571E+01 5.4577E-06
 8.6857E+01 5.2815E-06
 8.7143E+01 5.1105E-06
 8.7429E+01 4.9446E-06
 8.7714E+01 4.7837E-06
 8.8000E+01 4.6272E-06
 8.8286E+01 4.4755E-06
 8.8571E+01 4.3281E-06
 8.8857E+01 4.1854E-06
 8.9143E+01 4.0468E-06
 8.9429E+01 3.9124E-06
 8.9714E+01 3.7822E-06
 9.0000E+01 3.6557E-06
 9.0286E+01 3.5333E-06
 9.0571E+01 3.4143E-06
 9.0857E+01 3.2992E-06
 9.1143E+01 3.1874E-06
 9.1429E+01 3.0792E-06
 9.1714E+01 2.9745E-06
 9.2000E+01 2.8730E-06
 9.2286E+01 2.7745E-06
 9.2571E+01 2.6792E-06
 9.2857E+01 2.5868E-06
 9.3143E+01 2.4975E-06
 9.3429E+01 2.4109E-06
 9.3714E+01 2.3271E-06
 9.4000E+01 2.2459E-06
 9.4286E+01 2.1672E-06
 9.4571E+01 2.0912E-06
 9.4857E+01 2.0176E-06
 9.5143E+01 1.9465E-06
 9.5429E+01 1.8775E-06
 9.5714E+01 1.8111E-06
 9.6000E+01 1.7464E-06
 9.6286E+01 1.6841E-06
 9.6571E+01 1.6238E-06
 9.6857E+01 1.5655E-06
 9.7143E+01 1.5091E-06
 9.7429E+01 1.4546E-06
 9.7714E+01 1.4019E-06
 9.8000E+01 1.3509E-06
 9.8286E+01 1.3017E-06
 9.8571E+01 1.2540E-06
 9.8857E+01 1.2081E-06
 9.9143E+01 1.1637E-06
 9.9429E+01 1.1208E-06
 9.9714E+01 1.0794E-06
 1.0000E+02 1.0394E-06
 1.0029E+02 1.0008E-06
 1.0057E+02 9.6358E-07
 1.0086E+02 9.2764E-07
 1.0114E+02 8.9280E-07
 1.0143E+02 8.5925E-07
 1.0171E+02 8.2678E-07
 1.0200E+02 7.9550E-07
 1.0229E+02 7.6533E-07
 1.0257E+02 7.3615E-07
 1.0286E+02 7.0811E-07
 1.0314E+02 6.8102E-07
 1.0343E+02 6.5494E-07
 1.0371E+02 6.2977E-07
 1.0400E+02 6.0549E-07
 1.0429E+02 5.8203E-07
 1.0457E+02 5.5953E-07
 1.0486E+02 5.3777E-07
 1.0514E+02 5.1684E-07
 1.0543E+02 4.9668E-07
 1.0571E+02 4.7723E-07
 1.0600E+02 4.5851E-07
 1.0629E+02 4.4046E-07
 1.0657E+02 4.2308E-07
 1.0686E+02 4.0634E-07
 1.0714E+02 3.9018E-07
 1.0743E+02 3.7466E-07
 1.0771E+02 3.5970E-07
 1.0800E+02 3.4528E-07
 1.0829E+02 3.3148E-07
 1.0857E+02 3.1814E-07
 1.0886E+02 3.0536E-07
 1.0914E+02 2.9298E-07
 1.0943E+02 2.8112E-07
 1.0971E+02 2.6968E-07
 1.1000E+02 2.5866E-07
 1.1029E+02 2.4814E-07
 1.1057E+02 2.3799E-07
 1.1086E+02 2.2824E-07
 1.1114E+02 2.1886E-07
 1.1143E+02 2.0986E-07
 1.1171E+02 2.0120E-07
 1.1200E+02 1.9291E-07
 1.1229E+02 1.8491E-07
 1.1257E+02 1.7723E-07
 1.1286E+02 1.6983E-07
 1.1314E+02 1.6270E-07
 1.1343E+02 1.5588E-07
 1.1371E+02 1.4931E-07
 1.1400E+02 1.4301E-07
 1.1429E+02 1.3694E-07
 1.1457E+02 1.3113E-07
 1.1486E+02 1.2556E-07
 1.1514E+02 1.2019E-07
 1.1543E+02 1.1507E-07
 1.1571E+02 1.1015E-07
 1.1600E+02 1.0542E-07
 1.1629E+02 1.0089E-07
 1.1657E+02 9.6551E-08
 1.1686E+02 9.2402E-08
 1.1714E+02 8.8413E-08
 1.1743E+02 8.4577E-08
 1.1771E+02 8.0900E-08
 1.1800E+02 7.7372E-08
 1.1829E+02 7.3975E-08
 1.1857E+02 7.0715E-08
 1.1886E+02 6.7605E-08
 1.1914E+02 6.4612E-08
 1.1943E+02 6.1768E-08
 1.1971E+02 5.9028E-08
 1.2000E+02 5.6408E-08
 1.2029E+02 5.3908E-08
 1.2057E+02 5.1491E-08
 1.2086E+02 4.9216E-08
 1.2114E+02 4.7000E-08
 1.2143E+02 4.4904E-08
 1.2171E+02 4.2891E-08
 1.2200E+02 4.0960E-08
 1.2229E+02 3.9110E-08
 1.2257E+02 3.7338E-08
 1.2286E+02 3.5651E-08
 1.2314E+02 3.4021E-08
 1.2343E+02 3.2476E-08
 1.2371E+02 3.0987E-08
 1.2400E+02 2.9576E-08
 1.2429E+02 2.8216E-08
 1.2457E+02 2.6915E-08
 1.2486E+02 2.5678E-08
 1.2514E+02 2.4494E-08
 1.2543E+02 2.3364E-08
 1.2571E+02 2.2286E-08
 1.2600E+02 2.1245E-08
 1.2629E+02 2.0263E-08
 1.2657E+02 1.9320E-08
 1.2686E+02 1.8420E-08
 1.2714E+02 1.7560E-08
 1.2743E+02 1.6736E-08
 1.2771E+02 1.5954E-08
 1.2800E+02 1.5197E-08
 1.2829E+02 1.4480E-08
 1.2857E+02 1.3788E-08
 1.2886E+02 1.3126E-08
 1.2914E+02 1.2499E-08
 1.2943E+02 1.1903E-08
 1.2971E+02 1.1326E-08
 1.3000E+02 1.0787E-08
 1.3029E+02 1.0263E-08
 1.3057E+02 9.7696E-09
 1.3086E+02 9.2991E-09
 1.3114E+02 8.8472E-09
 1.3143E+02 8.4202E-09
 1.3171E+02 8.0079E-09
 1.3200E+02 7.6183E-09
 1.3229E+02 7.2434E-09
 1.3257E+02 6.8943E-09
 1.3286E+02 6.5593E-09
 1.3314E+02 6.2369E-09
 1.3343E+02 5.9310E-09
 1.3371E+02 5.6365E-09
 1.3400E+02 5.3542E-09
 1.3429E+02 5.0871E-09
 1.3457E+02 4.8287E-09
 1.3486E+02 4.5919E-09
 1.3514E+02 4.3619E-09
 1.3543E+02 4.1468E-09
 1.3571E+02 3.9394E-09
 1.3600E+02 3.7418E-09
 1.3629E+02 3.5560E-09
 1.3657E+02 3.3768E-09
 1.3686E+02 3.2097E-09
 1.3714E+02 3.0459E-09
 1.3743E+02 2.8964E-09
 1.3771E+02 2.7482E-09
 1.3800E+02 2.6112E-09
 1.3829E+02 2.4789E-09
 1.3857E+02 2.3506E-09
 1.3886E+02 2.2287E-09
 1.3914E+02 2.1132E-09
 1.3943E+02 2.0039E-09
 1.3971E+02 1.9002E-09
 1.4000E+02 1.8030E-09
 1.4029E+02 1.7127E-09
 1.4057E+02 1.6263E-09
 1.4086E+02 1.5427E-09
 1.4114E+02 1.4618E-09
 1.4143E+02 1.3861E-09
 1.4171E+02 1.3133E-09
 1.4200E+02 1.2433E-09
 1.4229E+02 1.1785E-09
 1.4257E+02 1.1156E-09
 1.4286E+02 1.0592E-09
 1.4314E+02 1.0002E-09
 1.4343E+02 9.4949E-10
 1.4371E+02 8.9856E-10
 1.4400E+02 8.5033E-10
 1.4429E+02 8.0535E-10
 1.4457E+02 7.6193E-10
 1.4486E+02 7.2220E-10
 1.4514E+02 6.8211E-10
 1.4543E+02 6.4664E-10
 1.4571E+02 6.1184E-10
 1.4600E+02 5.7945E-10
 1.4629E+02 5.4815E-10
 1.4657E+02 5.1837E-10
 1.4686E+02 4.9036E-10
 1.4714E+02 4.6373E-10
 1.4743E+02 4.3798E-10
 1.4771E+02 4.1421E-10
 1.4800E+02 3.9149E-10
 1.4829E+02 3.6979E-10
 1.4857E+02 3.5039E-10
 1.4886E+02 3.3250E-10
 1.4914E+02 3.1475E-10
 1.4943E+02 2.9753E-10
 1.4971E+02 2.8042E-10
 1.5000E+02 2.6536E-10
 1.5029E+02 2.5018E-10
 1.5057E+02 2.3541E-10
 1.5086E+02 2.2273E-10
 1.5114E+02 2.1049E-10
 1.5143E+02 1.9861E-10
 1.5171E+02 1.8850E-10
 1.5200E+02 1.7833E-10
 1.5229E+02 1.6780E-10
 1.5257E+02 1.5887E-10
 1.5286E+02 1.4969E-10
 1.5314E+02 1.4132E-10
 1.5343E+02 1.3298E-10
 1.5371E+02 1.2542E-10
 1.5400E+02 1.1784E-10
 1.5429E+02 1.1167E-10
 1.5457E+02 1.0492E-10
 1.5486E+02 9.8787E-11
 1.5514E+02 9.3101E-11
 1.5543E+02 8.7609E-11
 1.5571E+02 8.2731E-11
 1.5600E+02 7.7115E-11
 1.5629E+02 7.3388E-11
 1.5657E+02 6.8805E-11
 1.5686E+02 6.5114E-11
 1.5714E+02 6.1574E-11
 1.5743E+02 5.8230E-11
 1.5771E+02 5.5302E-11
 1.5800E+02 5.1947E-11
 1.5829E+02 4.9068E-11
 1.5857E+02 4.5876E-11
 1.5886E+02 4.3169E-11
 1.5914E+02 4.0704E-11
 1.5943E+02 3.8311E-11
 1.5971E+02 3.6122E-11
 1.6000E+02 3.4084E-11
 1.6029E+02 3.2047E-11
 1.6057E+02 3.0243E-11
 1.6086E+02 2.8250E-11
 1.6114E+02 2.6605E-11
 1.6143E+02 2.5016E-11
 1.6171E+02 2.3599E-11
 1.6200E+02 2.2334E-11
 1.6229E+02 2.0938E-11
 1.6257E+02 2.0124E-11
 1.6286E+02 1.8685E-11
 1.6314E+02 1.7617E-11
 1.6343E+02 1.6440E-11
 1.6371E+02 1.5208E-11
 1.6400E+02 1.4456E-11
 1.6429E+02 1.3460E-11
 1.6457E+02 1.2745E-11
 1.6486E+02 1.2130E-11
 1.6514E+02 1.1452E-11
 1.6543E+02 1.0592E-11
 1.6571E+02 9.9176E-12
 1.6600E+02 9.2065E-12
 1.6629E+02 8.6076E-12
 1.6657E+02 8.0619E-12
 1.6686E+02 7.6181E-12
 1.6714E+02 7.2337E-12
 1.6743E+02 6.8733E-12
 1.6771E+02 6.3518E-12
 1.6800E+02 6.0974E-12
 1.6829E+02 5.7361E-12
 1.6857E+02 5.2234E-12
 1.6886E+02 5.0878E-12
 1.6914E+02 4.5456E-12
 1.6943E+02 4.3615E-12
 1.6971E+02 4.0005E-12
 1.7000E+02 3.7550E-12
 1.7029E+02 3.5795E-12
 1.7057E+02 3.2168E-12
 1.7086E+02 3.1096E-12
 1.7114E+02 2.8481E-12
 1.7143E+02 2.7253E-12
 1.7171E+02 2.5436E-12
 1.7200E+02 2.4172E-12
 1.7229E+02 2.3031E-12
 1.7257E+02 2.1855E-12
 1.7286E+02 2.0241E-12
 1.7314E+02 1.8193E-12
 1.7343E+02 1.7369E-12
 1.7371E+02 1.5442E-12
 1.7400E+02 1.4726E-12
 1.7429E+02 1.3685E-12
 1.7457E+02 1.3108E-12
 1.7486E+02 1.2922E-12
 1.7514E+02 1.1471E-12
 1.7543E+02 1.1111E-12
 1.7571E+02 1.0638E-12
 1.7600E+02 9.9166E-13
 1.7629E+02 9.3861E-13
 1.7657E+02 8.5866E-13
 1.7686E+02 8.0220E-13
 1.7714E+02 7.6897E-13
 1.7743E+02 7.1112E-13
 1.7771E+02 6.9130E-13
 1.7800E+02 6.2014E-13
 1.7829E+02 5.9972E-13
 1.7857E+02 5.6640E-13
 1.7886E+02 5.1086E-13
 1.7914E+02 4.9680E-13
 1.7943E+02 4.6820E-13
 1.7971E+02 4.4927E-13
 1.8000E+02 3.9234E-13
 1.8029E+02 3.8592E-13
 1.8057E+02 3.2700E-13
 1.8086E+02 3.0222E-13
 1.8114E+02 2.6824E-13
 1.8143E+02 2.5449E-13
 1.8171E+02 2.2593E-13
 1.8200E+02 1.9115E-13
 1.8229E+02 1.8830E-13
 1.8257E+02 1.5895E-13
 1.8286E+02 1.7944E-13
 1.8314E+02 1.3908E-13
 1.8343E+02 1.3716E-13
 1.8371E+02 1.1305E-13
 1.8400E+02 1.1029E-13
 1.8429E+02 1.1998E-13
 1.8457E+02 1.2435E-13
 1.8486E+02 1.2265E-13
 1.8514E+02 1.1798E-13
 1.8543E+02 1.0885E-13
 1.8571E+02 1.0154E-13
 1.8600E+02 1.1584E-13
 1.8629E+02 8.6088E-14
 1.8657E+02 8.1486E-14
 1.8686E+02 6.7925E-14
 1.8714E+02 6.8060E-14
 1.8743E+02 6.3985E-14
 1.8771E+02 7.5329E-14
 1.8800E+02 7.0004E-14
 1.8829E+02 8.5827E-14
 1.8857E+02 8.9561E-14
 1.8886E+02 7.4548E-14
 1.8914E+02 6.3591E-14
 1.8943E+02 4.9114E-14
 1.8971E+02 4.2881E-14
 1.9000E+02 3.1658E-14
 1.9029E+02 3.8724E-14
 1.9057E+02 2.9400E-14
 1.9086E+02 3.2263E-14
 1.9114E+02 2.9953E-14
 1.9143E+02 2.7200E-14
 1.9171E+02 2.3189E-14
 1.9200E+02 1.5267E-14
 1.9229E+02 1.7684E-14
 1.9257E+02 1.4601E-14
 1.9286E+02 1.3367E-14
 1.9314E+02 1.3782E-14
 1.9343E+02 1.7815E-14
 1.9371E+02 1.1340E-14
 1.9400E+02 9.3178E-15
 1.9429E+02 7.7951E-15
 1.9457E+02 5.1285E-15
 1.9486E+02 8.6195E-15
 1.9514E+02 2.2365E-15
 1.9543E+02 3.5214E-15
 1.9571E+02 9.0482E-16
 1.9600E+02 9.9038E-16
 1.9629E+02 9.3186E-16
 1.9657E+02 3.4790E-16
 1.9686E+02 4.6729E-16
 1.9714E+02 1.7134E-16
 1.9743E+02 3.8283E-17
 1.9771E+02 1.7334E-17
 1.9800E+02 5.5360E-18
 1.9829E+02 1.1653E-18
 1.9857E+02 1.9111E-19
 1.9886E+02 3.8811E-20
 1.9914E+02 1.0760E-20
 1.9943E+02 8.5972E-21
 1.9971E+02 4.0746E-21
 2.0000E+02 4.4256E-21
