 0.0000E+00 7.6348E-04
 2.8571E-01 7.6342E-04
 5.7143E-01 7.6328E-04
 8.5714E-01 7.6306E-04
 1.1429E+00 7.6278E-04
 1.4286E+00 7.6241E-04
 1.7143E+00 7.6197E-04
 2.0000E+00 7.6143E-04
 2.2857E+00 7.6084E-04
 2.5714E+00 7.6017E-04
 2.8571E+00 7.5941E-04
 3.1429E+00 7.5858E-04
 3.4286E+00 7.5765E-04
 3.7143E+00 7.5665E-04
 4.0000E+00 7.5557E-04
 4.2857E+00 7.5440E-04
 4.5714E+00 7.5316E-04
 4.8571E+00 7.5185E-04
 5.1429E+00 7.5045E-04
 5.4286E+00 7.4899E-04
 5.7143E+00 7.4744E-04
 6.0000E+00 7.4583E-04
 6.2857E+00 7.4413E-04
 6.5714E+00 7.4236E-04
 6.8571E+00 7.4051E-04
 7.1429E+00 7.3858E-04
 7.4286E+00 7.3659E-04
 7.7143E+00 7.3453E-04
 8.0000E+00 7.3239E-04
 8.2857E+00 7.3018E-04
 8.5714E+00 7.2790E-04
 8.8571E+00 7.2556E-04
 9.1429E+00 7.2314E-04
 9.4286E+00 7.2066E-04
 9.7143E+00 7.1810E-04
 1.0000E+01 7.1549E-04
 1.0286E+01 7.1280E-04
 1.0571E+01 7.1005E-04
 1.0857E+01 7.0723E-04
 1.1143E+01 7.0436E-04
 1.1429E+01 7.0142E-04
 1.1714E+01 6.9842E-04
 1.2000E+01 6.9536E-04
 1.2286E+01 6.9224E-04
 1.2571E+01 6.8906E-04
 1.2857E+01 6.8581E-04
 1.3143E+01 6.8252E-04
 1.3429E+01 6.7917E-04
 1.3714E+01 6.7576E-04
 1.4000E+01 6.7230E-04
 1.4286E+01 6.6879E-04
 1.4571E+01 6.6522E-04
 1.4857E+01 6.6161E-04
 1.5143E+01 6.5794E-04
 1.5429E+01 6.5422E-04
 1.5714E+01 6.5046E-04
 1.6000E+01 6.4665E-04
 1.6286E+01 6.4279E-04
 1.6571E+01 6.3889E-04
 1.6857E+01 6.3494E-04
 1.7143E+01 6.3096E-04
 1.7429E+01 6.2693E-04
 1.7714E+01 6.2286E-04
 1.8000E+01 6.1875E-04
 1.8286E+01 6.1461E-04
 1.8571E+01 6.1042E-04
 1.8857E+01 6.0620E-04
 1.9143E+01 6.0195E-04
 1.9429E+01 5.9767E-04
 1.9714E+01 5.9335E-04
 2.0000E+01 5.8900E-04
 2.0286E+01 5.8462E-04
 2.0571E+01 5.8021E-04
 2.0857E+01 5.7578E-04
 2.1143E+01 5.7131E-04
 2.1429E+01 5.6682E-04
 2.1714E+01 5.6231E-04
 2.2000E+01 5.5777E-04
 2.2286E+01 5.5322E-04
 2.2571E+01 5.4864E-04
 2.2857E+01 5.4404E-04
 2.3143E+01 5.3943E-04
 2.3429E+01 5.3479E-04
 2.3714E+01 5.3014E-04
 2.4000E+01 5.2548E-04
 2.4286E+01 5.2081E-04
 2.4571E+01 5.1611E-04
 2.4857E+01 5.1141E-04
 2.5143E+01 5.0670E-04
 2.5429E+01 5.0197E-04
 2.5714E+01 4.9724E-04
 2.6000E+01 4.9250E-04
 2.6286E+01 4.8776E-04
 2.6571E+01 4.8300E-04
 2.6857E+01 4.7825E-04
 2.7143E+01 4.7348E-04
 2.7429E+01 4.6872E-04
 2.7714E+01 4.6396E-04
 2.8000E+01 4.5919E-04
 2.8286E+01 4.5443E-04
 2.8571E+01 4.4967E-04
 2.8857E+01 4.4491E-04
 2.9143E+01 4.4015E-04
 2.9429E+01 4.3540E-04
 2.9714E+01 4.3066E-04
 3.0000E+01 4.2592E-04
 3.0286E+01 4.2119E-04
 3.0571E+01 4.1647E-04
 3.0857E+01 4.1176E-04
 3.1143E+01 4.0705E-04
 3.1429E+01 4.0236E-04
 3.1714E+01 3.9768E-04
 3.2000E+01 3.9302E-04
 3.2286E+01 3.8837E-04
 3.2571E+01 3.8373E-04
 3.2857E+01 3.7910E-04
 3.3143E+01 3.7450E-04
 3.3429E+01 3.6991E-04
 3.3714E+01 3.6534E-04
 3.4000E+01 3.6078E-04
 3.4286E+01 3.5625E-04
 3.4571E+01 3.5173E-04
 3.4857E+01 3.4724E-04
 3.5143E+01 3.4276E-04
 3.5429E+01 3.3831E-04
 3.5714E+01 3.3388E-04
 3.6000E+01 3.2947E-04
 3.6286E+01 3.2509E-04
 3.6571E+01 3.2073E-04
 3.6857E+01 3.1640E-04
 3.7143E+01 3.1210E-04
 3.7429E+01 3.0782E-04
 3.7714E+01 3.0356E-04
 3.8000E+01 2.9934E-04
 3.8286E+01 2.9514E-04
 3.8571E+01 2.9096E-04
 3.8857E+01 2.8682E-04
 3.9143E+01 2.8271E-04
 3.9429E+01 2.7862E-04
 3.9714E+01 2.7457E-04
 4.0000E+01 2.7055E-04
 4.0286E+01 2.6655E-04
 4.0571E+01 2.6259E-04
 4.0857E+01 2.5866E-04
 4.1143E+01 2.5476E-04
 4.1429E+01 2.5089E-04
 4.1714E+01 2.4706E-04
 4.2000E+01 2.4326E-04
 4.2286E+01 2.3949E-04
 4.2571E+01 2.3575E-04
 4.2857E+01 2.3205E-04
 4.3143E+01 2.2838E-04
 4.3429E+01 2.2475E-04
 4.3714E+01 2.2115E-04
 4.4000E+01 2.1758E-04
 4.4286E+01 2.1405E-04
 4.4571E+01 2.1056E-04
 4.4857E+01 2.0710E-04
 4.5143E+01 2.0367E-04
 4.5429E+01 2.0029E-04
 4.5714E+01 1.9693E-04
 4.6000E+01 1.9362E-04
 4.6286E+01 1.9033E-04
 4.6571E+01 1.8709E-04
 4.6857E+01 1.8388E-04
 4.7143E+01 1.8070E-04
 4.7429E+01 1.7757E-04
 4.7714E+01 1.7447E-04
 4.8000E+01 1.7140E-04
 4.8286E+01 1.6837E-04
 4.8571E+01 1.6537E-04
 4.8857E+01 1.6242E-04
 4.9143E+01 1.5950E-04
 4.9429E+01 1.5661E-04
 4.9714E+01 1.5376E-04
 5.0000E+01 1.5095E-04
 5.0286E+01 1.4817E-04
 5.0571E+01 1.4543E-04
 5.0857E+01 1.4272E-04
 5.1143E+01 1.4005E-04
 5.1429E+01 1.3742E-04
 5.1714E+01 1.3482E-04
 5.2000E+01 1.3225E-04
 5.2286E+01 1.2972E-04
 5.2571E+01 1.2723E-04
 5.2857E+01 1.2477E-04
 5.3143E+01 1.2234E-04
 5.3429E+01 1.1995E-04
 5.3714E+01 1.1759E-04
 5.4000E+01 1.1527E-04
 5.4286E+01 1.1298E-04
 5.4571E+01 1.1072E-04
 5.4857E+01 1.0850E-04
 5.5143E+01 1.0631E-04
 5.5429E+01 1.0416E-04
 5.5714E+01 1.0203E-04
 5.6000E+01 9.9944E-05
 5.6286E+01 9.7885E-05
 5.6571E+01 9.5861E-05
 5.6857E+01 9.3868E-05
 5.7143E+01 9.1907E-05
 5.7429E+01 8.9978E-05
 5.7714E+01 8.8080E-05
 5.8000E+01 8.6213E-05
 5.8286E+01 8.4376E-05
 5.8571E+01 8.2570E-05
 5.8857E+01 8.0793E-05
 5.9143E+01 7.9047E-05
 5.9429E+01 7.7329E-05
 5.9714E+01 7.5641E-05
 6.0000E+01 7.3982E-05
 6.0286E+01 7.2352E-05
 6.0571E+01 7.0751E-05
 6.0857E+01 6.9177E-05
 6.1143E+01 6.7631E-05
 6.1429E+01 6.6114E-05
 6.1714E+01 6.4622E-05
 6.2000E+01 6.3158E-05
 6.2286E+01 6.1720E-05
 6.2571E+01 6.0308E-05
 6.2857E+01 5.8924E-05
 6.3143E+01 5.7565E-05
 6.3429E+01 5.6231E-05
 6.3714E+01 5.4923E-05
 6.4000E+01 5.3639E-05
 6.4286E+01 5.2380E-05
 6.4571E+01 5.1144E-05
 6.4857E+01 4.9932E-05
 6.5143E+01 4.8744E-05
 6.5429E+01 4.7579E-05
 6.5714E+01 4.6437E-05
 6.6000E+01 4.5318E-05
 6.6286E+01 4.4221E-05
 6.6571E+01 4.3147E-05
 6.6857E+01 4.2094E-05
 6.7143E+01 4.1061E-05
 6.7429E+01 4.0050E-05
 6.7714E+01 3.9060E-05
 6.8000E+01 3.8090E-05
 6.8286E+01 3.7141E-05
 6.8571E+01 3.6212E-05
 6.8857E+01 3.5301E-05
 6.9143E+01 3.4411E-05
 6.9429E+01 3.3539E-05
 6.9714E+01 3.2686E-05
 7.0000E+01 3.1850E-05
 7.0286E+01 3.1034E-05
 7.0571E+01 3.0234E-05
 7.0857E+01 2.9453E-05
 7.1143E+01 2.8687E-05
 7.1429E+01 2.7940E-05
 7.1714E+01 2.7208E-05
 7.2000E+01 2.6493E-05
 7.2286E+01 2.5795E-05
 7.2571E+01 2.5111E-05
 7.2857E+01 2.4444E-05
 7.3143E+01 2.3792E-05
 7.3429E+01 2.3155E-05
 7.3714E+01 2.2532E-05
 7.4000E+01 2.1924E-05
 7.4286E+01 2.1330E-05
 7.4571E+01 2.0750E-05
 7.4857E+01 2.0183E-05
 7.5143E+01 1.9630E-05
 7.5429E+01 1.9090E-05
 7.5714E+01 1.8563E-05
 7.6000E+01 1.8049E-05
 7.6286E+01 1.7547E-05
 7.6571E+01 1.7057E-05
 7.6857E+01 1.6579E-05
 7.7143E+01 1.6113E-05
 7.7429E+01 1.5658E-05
 7.7714E+01 1.5214E-05
 7.8000E+01 1.4781E-05
 7.8286E+01 1.4360E-05
 7.8571E+01 1.3948E-05
 7.8857E+01 1.3547E-05
 7.9143E+01 1.3157E-05
 7.9429E+01 1.2776E-05
 7.9714E+01 1.2404E-05
 8.0000E+01 1.2043E-05
 8.0286E+01 1.1691E-05
 8.0571E+01 1.1347E-05
 8.0857E+01 1.1013E-05
 8.1143E+01 1.0688E-05
 8.1429E+01 1.0371E-05
 8.1714E+01 1.0062E-05
 8.2000E+01 9.7616E-06
 8.2286E+01 9.4687E-06
 8.2571E+01 9.1843E-06
 8.2857E+01 8.9071E-06
 8.3143E+01 8.6373E-06
 8.3429E+01 8.3746E-06
 8.3714E+01 8.1193E-06
 8.4000E+01 7.8707E-06
 8.4286E+01 7.6291E-06
 8.4571E+01 7.3941E-06
 8.4857E+01 7.1658E-06
 8.5143E+01 6.9435E-06
 8.5429E+01 6.7276E-06
 8.5714E+01 6.5176E-06
 8.6000E+01 6.3137E-06
 8.6286E+01 6.1154E-06
 8.6571E+01 5.9226E-06
 8.6857E+01 5.7353E-06
 8.7143E+01 5.5533E-06
 8.7429E+01 5.3764E-06
 8.7714E+01 5.2049E-06
 8.8000E+01 5.0382E-06
 8.8286E+01 4.8764E-06
 8.8571E+01 4.7194E-06
 8.8857E+01 4.5667E-06
 8.9143E+01 4.4188E-06
 8.9429E+01 4.2749E-06
 8.9714E+01 4.1353E-06
 9.0000E+01 4.0000E-06
 9.0286E+01 3.8686E-06
 9.0571E+01 3.7410E-06
 9.0857E+01 3.6174E-06
 9.1143E+01 3.4973E-06
 9.1429E+01 3.3809E-06
 9.1714E+01 3.2682E-06
 9.2000E+01 3.1588E-06
 9.2286E+01 3.0528E-06
 9.2571E+01 2.9501E-06
 9.2857E+01 2.8505E-06
 9.3143E+01 2.7539E-06
 9.3429E+01 2.6605E-06
 9.3714E+01 2.5698E-06
 9.4000E+01 2.4820E-06
 9.4286E+01 2.3971E-06
 9.4571E+01 2.3146E-06
 9.4857E+01 2.2348E-06
 9.5143E+01 2.1574E-06
 9.5429E+01 2.0826E-06
 9.5714E+01 2.0100E-06
 9.6000E+01 1.9400E-06
 9.6286E+01 1.8721E-06
 9.6571E+01 1.8065E-06
 9.6857E+01 1.7430E-06
 9.7143E+01 1.6816E-06
 9.7429E+01 1.6220E-06
 9.7714E+01 1.5646E-06
 9.8000E+01 1.5087E-06
 9.8286E+01 1.4550E-06
 9.8571E+01 1.4027E-06
 9.8857E+01 1.3524E-06
 9.9143E+01 1.3037E-06
 9.9429E+01 1.2566E-06
 9.9714E+01 1.2111E-06
 1.0000E+02 1.1670E-06
 1.0029E+02 1.1246E-06
 1.0057E+02 1.0835E-06
 1.0086E+02 1.0439E-06
 1.0114E+02 1.0055E-06
 1.0143E+02 9.6854E-07
 1.0171E+02 9.3276E-07
 1.0200E+02 8.9832E-07
 1.0229E+02 8.6498E-07
 1.0257E+02 8.3281E-07
 1.0286E+02 8.0169E-07
 1.0314E+02 7.7163E-07
 1.0343E+02 7.4262E-07
 1.0371E+02 7.1461E-07
 1.0400E+02 6.8761E-07
 1.0429E+02 6.6159E-07
 1.0457E+02 6.3649E-07
 1.0486E+02 6.1229E-07
 1.0514E+02 5.8897E-07
 1.0543E+02 5.6646E-07
 1.0571E+02 5.4476E-07
 1.0600E+02 5.2376E-07
 1.0629E+02 5.0359E-07
 1.0657E+02 4.8407E-07
 1.0686E+02 4.6527E-07
 1.0714E+02 4.4716E-07
 1.0743E+02 4.2970E-07
 1.0771E+02 4.1295E-07
 1.0800E+02 3.9671E-07
 1.0829E+02 3.8119E-07
 1.0857E+02 3.6617E-07
 1.0886E+02 3.5169E-07
 1.0914E+02 3.3777E-07
 1.0943E+02 3.2432E-07
 1.0971E+02 3.1146E-07
 1.1000E+02 2.9900E-07
 1.1029E+02 2.8707E-07
 1.1057E+02 2.7553E-07
 1.1086E+02 2.6449E-07
 1.1114E+02 2.5383E-07
 1.1143E+02 2.4355E-07
 1.1171E+02 2.3367E-07
 1.1200E+02 2.2419E-07
 1.1229E+02 2.1505E-07
 1.1257E+02 2.0626E-07
 1.1286E+02 1.9787E-07
 1.1314E+02 1.8975E-07
 1.1343E+02 1.8199E-07
 1.1371E+02 1.7449E-07
 1.1400E+02 1.6731E-07
 1.1429E+02 1.6038E-07
 1.1457E+02 1.5372E-07
 1.1486E+02 1.4731E-07
 1.1514E+02 1.4116E-07
 1.1543E+02 1.3525E-07
 1.1571E+02 1.2956E-07
 1.1600E+02 1.2414E-07
 1.1629E+02 1.1891E-07
 1.1657E+02 1.1387E-07
 1.1686E+02 1.0904E-07
 1.1714E+02 1.0443E-07
 1.1743E+02 9.9993E-08
 1.1771E+02 9.5751E-08
 1.1800E+02 9.1697E-08
 1.1829E+02 8.7767E-08
 1.1857E+02 8.3993E-08
 1.1886E+02 8.0394E-08
 1.1914E+02 7.6908E-08
 1.1943E+02 7.3585E-08
 1.1971E+02 7.0391E-08
 1.2000E+02 6.7316E-08
 1.2029E+02 6.4387E-08
 1.2057E+02 6.1558E-08
 1.2086E+02 5.8870E-08
 1.2114E+02 5.6291E-08
 1.2143E+02 5.3815E-08
 1.2171E+02 5.1441E-08
 1.2200E+02 4.9169E-08
 1.2229E+02 4.6987E-08
 1.2257E+02 4.4894E-08
 1.2286E+02 4.2898E-08
 1.2314E+02 4.0973E-08
 1.2343E+02 3.9158E-08
 1.2371E+02 3.7413E-08
 1.2400E+02 3.5744E-08
 1.2429E+02 3.4140E-08
 1.2457E+02 3.2600E-08
 1.2486E+02 3.1131E-08
 1.2514E+02 2.9715E-08
 1.2543E+02 2.8380E-08
 1.2571E+02 2.7082E-08
 1.2600E+02 2.5854E-08
 1.2629E+02 2.4667E-08
 1.2657E+02 2.3529E-08
 1.2686E+02 2.2464E-08
 1.2714E+02 2.1428E-08
 1.2743E+02 2.0429E-08
 1.2771E+02 1.9489E-08
 1.2800E+02 1.8580E-08
 1.2829E+02 1.7719E-08
 1.2857E+02 1.6899E-08
 1.2886E+02 1.6115E-08
 1.2914E+02 1.5374E-08
 1.2943E+02 1.4660E-08
 1.2971E+02 1.3986E-08
 1.3000E+02 1.3330E-08
 1.3029E+02 1.2702E-08
 1.3057E+02 1.2102E-08
 1.3086E+02 1.1534E-08
 1.3114E+02 1.0977E-08
 1.3143E+02 1.0458E-08
 1.3171E+02 9.9579E-09
 1.3200E+02 9.4808E-09
 1.3229E+02 9.0258E-09
 1.3257E+02 8.5905E-09
 1.3286E+02 8.1844E-09
 1.3314E+02 7.7857E-09
 1.3343E+02 7.4150E-09
 1.3371E+02 7.0514E-09
 1.3400E+02 6.7125E-09
 1.3429E+02 6.3918E-09
 1.3457E+02 6.0801E-09
 1.3486E+02 5.7853E-09
 1.3514E+02 5.5021E-09
 1.3543E+02 5.2323E-09
 1.3571E+02 4.9772E-09
 1.3600E+02 4.7289E-09
 1.3629E+02 4.4916E-09
 1.3657E+02 4.2662E-09
 1.3686E+02 4.0556E-09
 1.3714E+02 3.8535E-09
 1.3743E+02 3.6621E-09
 1.3771E+02 3.4788E-09
 1.3800E+02 3.3035E-09
 1.3829E+02 3.1412E-09
 1.3857E+02 2.9829E-09
 1.3886E+02 2.8390E-09
 1.3914E+02 2.6939E-09
 1.3943E+02 2.5600E-09
 1.3971E+02 2.4315E-09
 1.4000E+02 2.3079E-09
 1.4029E+02 2.1918E-09
 1.4057E+02 2.0813E-09
 1.4086E+02 1.9776E-09
 1.4114E+02 1.8771E-09
 1.4143E+02 1.7807E-09
 1.4171E+02 1.6899E-09
 1.4200E+02 1.6022E-09
 1.4229E+02 1.5191E-09
 1.4257E+02 1.4436E-09
 1.4286E+02 1.3676E-09
 1.4314E+02 1.2976E-09
 1.4343E+02 1.2303E-09
 1.4371E+02 1.1679E-09
 1.4400E+02 1.1071E-09
 1.4429E+02 1.0514E-09
 1.4457E+02 9.9611E-10
 1.4486E+02 9.4496E-10
 1.4514E+02 8.9481E-10
 1.4543E+02 8.4785E-10
 1.4571E+02 8.0490E-10
 1.4600E+02 7.6233E-10
 1.4629E+02 7.2168E-10
 1.4657E+02 6.8264E-10
 1.4686E+02 6.4610E-10
 1.4714E+02 6.1007E-10
 1.4743E+02 5.7891E-10
 1.4771E+02 5.4678E-10
 1.4800E+02 5.1914E-10
 1.4829E+02 4.9040E-10
 1.4857E+02 4.6449E-10
 1.4886E+02 4.4035E-10
 1.4914E+02 4.1554E-10
 1.4943E+02 3.9411E-10
 1.4971E+02 3.7291E-10
 1.5000E+02 3.5259E-10
 1.5029E+02 3.3375E-10
 1.5057E+02 3.1515E-10
 1.5086E+02 2.9866E-10
 1.5114E+02 2.8221E-10
 1.5143E+02 2.6610E-10
 1.5171E+02 2.5194E-10
 1.5200E+02 2.3752E-10
 1.5229E+02 2.2501E-10
 1.5257E+02 2.1113E-10
 1.5286E+02 1.9979E-10
 1.5314E+02 1.8878E-10
 1.5343E+02 1.7859E-10
 1.5371E+02 1.6916E-10
 1.5400E+02 1.6017E-10
 1.5429E+02 1.5212E-10
 1.5457E+02 1.4364E-10
 1.5486E+02 1.3625E-10
 1.5514E+02 1.2823E-10
 1.5543E+02 1.2109E-10
 1.5571E+02 1.1406E-10
 1.5600E+02 1.0747E-10
 1.5629E+02 1.0146E-10
 1.5657E+02 9.5244E-11
 1.5686E+02 9.0048E-11
 1.5714E+02 8.4842E-11
 1.5743E+02 7.9976E-11
 1.5771E+02 7.5387E-11
 1.5800E+02 7.1261E-11
 1.5829E+02 6.7321E-11
 1.5857E+02 6.3098E-11
 1.5886E+02 6.0053E-11
 1.5914E+02 5.6485E-11
 1.5943E+02 5.3471E-11
 1.5971E+02 5.0357E-11
 1.6000E+02 4.7125E-11
 1.6029E+02 4.4231E-11
 1.6057E+02 4.1431E-11
 1.6086E+02 3.8870E-11
 1.6114E+02 3.6301E-11
 1.6143E+02 3.4552E-11
 1.6171E+02 3.2713E-11
 1.6200E+02 3.1052E-11
 1.6229E+02 2.9329E-11
 1.6257E+02 2.7522E-11
 1.6286E+02 2.5745E-11
 1.6314E+02 2.4348E-11
 1.6343E+02 2.2794E-11
 1.6371E+02 2.1665E-11
 1.6400E+02 2.0448E-11
 1.6429E+02 1.9237E-11
 1.6457E+02 1.8374E-11
 1.6486E+02 1.7122E-11
 1.6514E+02 1.6284E-11
 1.6543E+02 1.5111E-11
 1.6571E+02 1.4237E-11
 1.6600E+02 1.3305E-11
 1.6629E+02 1.2518E-11
 1.6657E+02 1.1796E-11
 1.6686E+02 1.1182E-11
 1.6714E+02 1.0632E-11
 1.6743E+02 9.8584E-12
 1.6771E+02 9.3790E-12
 1.6800E+02 8.6319E-12
 1.6829E+02 8.1369E-12
 1.6857E+02 7.4550E-12
 1.6886E+02 7.0840E-12
 1.6914E+02 6.6995E-12
 1.6943E+02 6.2937E-12
 1.6971E+02 5.9926E-12
 1.7000E+02 5.5665E-12
 1.7029E+02 5.3476E-12
 1.7057E+02 5.0243E-12
 1.7086E+02 4.7506E-12
 1.7114E+02 4.3907E-12
 1.7143E+02 4.0992E-12
 1.7171E+02 3.7943E-12
 1.7200E+02 3.5160E-12
 1.7229E+02 3.2366E-12
 1.7257E+02 3.0914E-12
 1.7286E+02 2.8683E-12
 1.7314E+02 2.7450E-12
 1.7343E+02 2.5883E-12
 1.7371E+02 2.4095E-12
 1.7400E+02 2.2360E-12
 1.7429E+02 2.0583E-12
 1.7457E+02 1.9583E-12
 1.7486E+02 1.7945E-12
 1.7514E+02 1.7515E-12
 1.7543E+02 1.5923E-12
 1.7571E+02 1.5946E-12
 1.7600E+02 1.5303E-12
 1.7629E+02 1.3589E-12
 1.7657E+02 1.3094E-12
 1.7686E+02 1.1800E-12
 1.7714E+02 1.0838E-12
 1.7743E+02 1.0017E-12
 1.7771E+02 9.0471E-13
 1.7800E+02 9.0207E-13
 1.7829E+02 8.3016E-13
 1.7857E+02 7.6629E-13
 1.7886E+02 7.4080E-13
 1.7914E+02 6.8279E-13
 1.7943E+02 6.2927E-13
 1.7971E+02 5.9206E-13
 1.8000E+02 5.5789E-13
 1.8029E+02 5.1750E-13
 1.8057E+02 4.6749E-13
 1.8086E+02 4.5474E-13
 1.8114E+02 4.1705E-13
 1.8143E+02 4.2847E-13
 1.8171E+02 3.9562E-13
 1.8200E+02 3.4941E-13
 1.8229E+02 3.6879E-13
 1.8257E+02 3.0016E-13
 1.8286E+02 3.0985E-13
 1.8314E+02 2.7480E-13
 1.8343E+02 2.7896E-13
 1.8371E+02 2.4888E-13
 1.8400E+02 2.3247E-13
 1.8429E+02 2.6917E-13
 1.8457E+02 2.1207E-13
 1.8486E+02 2.0826E-13
 1.8514E+02 1.7959E-13
 1.8543E+02 1.7611E-13
 1.8571E+02 1.6204E-13
 1.8600E+02 1.5569E-13
 1.8629E+02 1.5791E-13
 1.8657E+02 1.3966E-13
 1.8686E+02 1.4175E-13
 1.8714E+02 1.1892E-13
 1.8743E+02 9.9700E-14
 1.8771E+02 7.8389E-14
 1.8800E+02 6.1387E-14
 1.8829E+02 6.0423E-14
 1.8857E+02 6.3093E-14
 1.8886E+02 6.6563E-14
 1.8914E+02 7.4688E-14
 1.8943E+02 6.3426E-14
 1.8971E+02 8.6191E-14
 1.9000E+02 6.3000E-14
 1.9029E+02 5.5150E-14
 1.9057E+02 5.8375E-14
 1.9086E+02 4.6803E-14
 1.9114E+02 4.8468E-14
 1.9143E+02 4.4609E-14
 1.9171E+02 4.5433E-14
 1.9200E+02 4.1025E-14
 1.9229E+02 4.2653E-14
 1.9257E+02 2.3336E-14
 1.9286E+02 3.6181E-14
 1.9314E+02 2.7118E-14
 1.9343E+02 2.9761E-14
 1.9371E+02 3.3404E-14
 1.9400E+02 1.9981E-14
 1.9429E+02 2.0693E-14
 1.9457E+02 1.2238E-14
 1.9486E+02 7.0511E-15
 1.9514E+02 3.7396E-15
 1.9543E+02 1.8378E-15
 1.9571E+02 9.8392E-16
 1.9600E+02 1.1340E-15
 1.9629E+02 1.1564E-16
 1.9657E+02 2.0324E-16
 1.9686E+02 1.2819E-16
 1.9714E+02 2.4926E-17
 1.9743E+02 4.7948E-17
 1.9771E+02 1.5934E-17
 1.9800E+02 1.2325E-18
 1.9829E+02 8.1693E-20
 1.9857E+02 2.3943E-19
 1.9886E+02 1.3047E-19
 1.9914E+02 5.2032E-20
 1.9943E+02 2.3797E-20
 1.9971E+02 1.3578E-20
 2.0000E+02 6.0689E-21
