 0.0000E+00 8.0461E-04
 2.8571E-01 8.0456E-04
 5.7143E-01 8.0439E-04
 8.5714E-01 8.0419E-04
 1.1429E+00 8.0388E-04
 1.4286E+00 8.0349E-04
 1.7143E+00 8.0299E-04
 2.0000E+00 8.0240E-04
 2.2857E+00 8.0171E-04
 2.5714E+00 8.0093E-04
 2.8571E+00 8.0007E-04
 3.1429E+00 7.9912E-04
 3.4286E+00 7.9810E-04
 3.7143E+00 7.9699E-04
 4.0000E+00 7.9579E-04
 4.2857E+00 7.9451E-04
 4.5714E+00 7.9314E-04
 4.8571E+00 7.9168E-04
 5.1429E+00 7.9013E-04
 5.4286E+00 7.8850E-04
 5.7143E+00 7.8678E-04
 6.0000E+00 7.8499E-04
 6.2857E+00 7.8311E-04
 6.5714E+00 7.8116E-04
 6.8571E+00 7.7911E-04
 7.1429E+00 7.7700E-04
 7.4286E+00 7.7478E-04
 7.7143E+00 7.7250E-04
 8.0000E+00 7.7012E-04
 8.2857E+00 7.6767E-04
 8.5714E+00 7.6514E-04
 8.8571E+00 7.6254E-04
 9.1429E+00 7.5986E-04
 9.4286E+00 7.5711E-04
 9.7143E+00 7.5429E-04
 1.0000E+01 7.5139E-04
 1.0286E+01 7.4842E-04
 1.0571E+01 7.4537E-04
 1.0857E+01 7.4225E-04
 1.1143E+01 7.3907E-04
 1.1429E+01 7.3582E-04
 1.1714E+01 7.3250E-04
 1.2000E+01 7.2912E-04
 1.2286E+01 7.2568E-04
 1.2571E+01 7.2217E-04
 1.2857E+01 7.1859E-04
 1.3143E+01 7.1495E-04
 1.3429E+01 7.1126E-04
 1.3714E+01 7.0749E-04
 1.4000E+01 7.0368E-04
 1.4286E+01 6.9980E-04
 1.4571E+01 6.9587E-04
 1.4857E+01 6.9188E-04
 1.5143E+01 6.8785E-04
 1.5429E+01 6.8376E-04
 1.5714E+01 6.7961E-04
 1.6000E+01 6.7541E-04
 1.6286E+01 6.7117E-04
 1.6571E+01 6.6687E-04
 1.6857E+01 6.6253E-04
 1.7143E+01 6.5815E-04
 1.7429E+01 6.5372E-04
 1.7714E+01 6.4925E-04
 1.8000E+01 6.4474E-04
 1.8286E+01 6.4019E-04
 1.8571E+01 6.3560E-04
 1.8857E+01 6.3098E-04
 1.9143E+01 6.2631E-04
 1.9429E+01 6.2161E-04
 1.9714E+01 6.1688E-04
 2.0000E+01 6.1211E-04
 2.0286E+01 6.0731E-04
 2.0571E+01 6.0249E-04
 2.0857E+01 5.9764E-04
 2.1143E+01 5.9275E-04
 2.1429E+01 5.8785E-04
 2.1714E+01 5.8292E-04
 2.2000E+01 5.7797E-04
 2.2286E+01 5.7299E-04
 2.2571E+01 5.6800E-04
 2.2857E+01 5.6298E-04
 2.3143E+01 5.5795E-04
 2.3429E+01 5.5290E-04
 2.3714E+01 5.4783E-04
 2.4000E+01 5.4276E-04
 2.4286E+01 5.3767E-04
 2.4571E+01 5.3256E-04
 2.4857E+01 5.2745E-04
 2.5143E+01 5.2232E-04
 2.5429E+01 5.1719E-04
 2.5714E+01 5.1205E-04
 2.6000E+01 5.0691E-04
 2.6286E+01 5.0176E-04
 2.6571E+01 4.9661E-04
 2.6857E+01 4.9146E-04
 2.7143E+01 4.8630E-04
 2.7429E+01 4.8115E-04
 2.7714E+01 4.7600E-04
 2.8000E+01 4.7085E-04
 2.8286E+01 4.6570E-04
 2.8571E+01 4.6056E-04
 2.8857E+01 4.5543E-04
 2.9143E+01 4.5030E-04
 2.9429E+01 4.4518E-04
 2.9714E+01 4.4007E-04
 3.0000E+01 4.3497E-04
 3.0286E+01 4.2988E-04
 3.0571E+01 4.2481E-04
 3.0857E+01 4.1975E-04
 3.1143E+01 4.1470E-04
 3.1429E+01 4.0966E-04
 3.1714E+01 4.0465E-04
 3.2000E+01 3.9965E-04
 3.2286E+01 3.9466E-04
 3.2571E+01 3.8970E-04
 3.2857E+01 3.8475E-04
 3.3143E+01 3.7982E-04
 3.3429E+01 3.7492E-04
 3.3714E+01 3.7004E-04
 3.4000E+01 3.6518E-04
 3.4286E+01 3.6034E-04
 3.4571E+01 3.5553E-04
 3.4857E+01 3.5074E-04
 3.5143E+01 3.4598E-04
 3.5429E+01 3.4125E-04
 3.5714E+01 3.3654E-04
 3.6000E+01 3.3186E-04
 3.6286E+01 3.2721E-04
 3.6571E+01 3.2259E-04
 3.6857E+01 3.1800E-04
 3.7143E+01 3.1344E-04
 3.7429E+01 3.0891E-04
 3.7714E+01 3.0441E-04
 3.8000E+01 2.9994E-04
 3.8286E+01 2.9551E-04
 3.8571E+01 2.9111E-04
 3.8857E+01 2.8674E-04
 3.9143E+01 2.8241E-04
 3.9429E+01 2.7811E-04
 3.9714E+01 2.7385E-04
 4.0000E+01 2.6962E-04
 4.0286E+01 2.6543E-04
 4.0571E+01 2.6127E-04
 4.0857E+01 2.5715E-04
 4.1143E+01 2.5307E-04
 4.1429E+01 2.4902E-04
 4.1714E+01 2.4501E-04
 4.2000E+01 2.4104E-04
 4.2286E+01 2.3711E-04
 4.2571E+01 2.3321E-04
 4.2857E+01 2.2936E-04
 4.3143E+01 2.2554E-04
 4.3429E+01 2.2176E-04
 4.3714E+01 2.1802E-04
 4.4000E+01 2.1431E-04
 4.4286E+01 2.1065E-04
 4.4571E+01 2.0703E-04
 4.4857E+01 2.0345E-04
 4.5143E+01 1.9990E-04
 4.5429E+01 1.9640E-04
 4.5714E+01 1.9294E-04
 4.6000E+01 1.8951E-04
 4.6286E+01 1.8613E-04
 4.6571E+01 1.8279E-04
 4.6857E+01 1.7948E-04
 4.7143E+01 1.7622E-04
 4.7429E+01 1.7300E-04
 4.7714E+01 1.6982E-04
 4.8000E+01 1.6667E-04
 4.8286E+01 1.6357E-04
 4.8571E+01 1.6050E-04
 4.8857E+01 1.5748E-04
 4.9143E+01 1.5450E-04
 4.9429E+01 1.5155E-04
 4.9714E+01 1.4865E-04
 5.0000E+01 1.4578E-04
 5.0286E+01 1.4296E-04
 5.0571E+01 1.4017E-04
 5.0857E+01 1.3742E-04
 5.1143E+01 1.3471E-04
 5.1429E+01 1.3204E-04
 5.1714E+01 1.2941E-04
 5.2000E+01 1.2681E-04
 5.2286E+01 1.2426E-04
 5.2571E+01 1.2174E-04
 5.2857E+01 1.1926E-04
 5.3143E+01 1.1682E-04
 5.3429E+01 1.1441E-04
 5.3714E+01 1.1205E-04
 5.4000E+01 1.0971E-04
 5.4286E+01 1.0742E-04
 5.4571E+01 1.0516E-04
 5.4857E+01 1.0294E-04
 5.5143E+01 1.0076E-04
 5.5429E+01 9.8604E-05
 5.5714E+01 9.6489E-05
 5.6000E+01 9.4407E-05
 5.6286E+01 9.2360E-05
 5.6571E+01 9.0347E-05
 5.6857E+01 8.8367E-05
 5.7143E+01 8.6423E-05
 5.7429E+01 8.4511E-05
 5.7714E+01 8.2632E-05
 5.8000E+01 8.0787E-05
 5.8286E+01 7.8973E-05
 5.8571E+01 7.7192E-05
 5.8857E+01 7.5443E-05
 5.9143E+01 7.3726E-05
 5.9429E+01 7.2039E-05
 5.9714E+01 7.0384E-05
 6.0000E+01 6.8758E-05
 6.0286E+01 6.7163E-05
 6.0571E+01 6.5597E-05
 6.0857E+01 6.4061E-05
 6.1143E+01 6.2553E-05
 6.1429E+01 6.1074E-05
 6.1714E+01 5.9623E-05
 6.2000E+01 5.8199E-05
 6.2286E+01 5.6805E-05
 6.2571E+01 5.5437E-05
 6.2857E+01 5.4097E-05
 6.3143E+01 5.2783E-05
 6.3429E+01 5.1494E-05
 6.3714E+01 5.0232E-05
 6.4000E+01 4.8995E-05
 6.4286E+01 4.7784E-05
 6.4571E+01 4.6596E-05
 6.4857E+01 4.5434E-05
 6.5143E+01 4.4295E-05
 6.5429E+01 4.3180E-05
 6.5714E+01 4.2088E-05
 6.6000E+01 4.1020E-05
 6.6286E+01 3.9975E-05
 6.6571E+01 3.8951E-05
 6.6857E+01 3.7949E-05
 6.7143E+01 3.6970E-05
 6.7429E+01 3.6011E-05
 6.7714E+01 3.5074E-05
 6.8000E+01 3.4157E-05
 6.8286E+01 3.3261E-05
 6.8571E+01 3.2384E-05
 6.8857E+01 3.1527E-05
 6.9143E+01 3.0688E-05
 6.9429E+01 2.9869E-05
 6.9714E+01 2.9068E-05
 7.0000E+01 2.8286E-05
 7.0286E+01 2.7522E-05
 7.0571E+01 2.6776E-05
 7.0857E+01 2.6046E-05
 7.1143E+01 2.5334E-05
 7.1429E+01 2.4639E-05
 7.1714E+01 2.3960E-05
 7.2000E+01 2.3298E-05
 7.2286E+01 2.2650E-05
 7.2571E+01 2.2018E-05
 7.2857E+01 2.1402E-05
 7.3143E+01 2.0801E-05
 7.3429E+01 2.0214E-05
 7.3714E+01 1.9642E-05
 7.4000E+01 1.9083E-05
 7.4286E+01 1.8539E-05
 7.4571E+01 1.8008E-05
 7.4857E+01 1.7490E-05
 7.5143E+01 1.6985E-05
 7.5429E+01 1.6494E-05
 7.5714E+01 1.6014E-05
 7.6000E+01 1.5547E-05
 7.6286E+01 1.5091E-05
 7.6571E+01 1.4648E-05
 7.6857E+01 1.4215E-05
 7.7143E+01 1.3794E-05
 7.7429E+01 1.3384E-05
 7.7714E+01 1.2985E-05
 7.8000E+01 1.2596E-05
 7.8286E+01 1.2217E-05
 7.8571E+01 1.1849E-05
 7.8857E+01 1.1490E-05
 7.9143E+01 1.1141E-05
 7.9429E+01 1.0802E-05
 7.9714E+01 1.0472E-05
 8.0000E+01 1.0150E-05
 8.0286E+01 9.8375E-06
 8.0571E+01 9.5330E-06
 8.0857E+01 9.2372E-06
 8.1143E+01 8.9494E-06
 8.1429E+01 8.6699E-06
 8.1714E+01 8.3982E-06
 8.2000E+01 8.1337E-06
 8.2286E+01 7.8773E-06
 8.2571E+01 7.6275E-06
 8.2857E+01 7.3853E-06
 8.3143E+01 7.1497E-06
 8.3429E+01 6.9211E-06
 8.3714E+01 6.6988E-06
 8.4000E+01 6.4832E-06
 8.4286E+01 6.2737E-06
 8.4571E+01 6.0701E-06
 8.4857E+01 5.8728E-06
 8.5143E+01 5.6809E-06
 8.5429E+01 5.4951E-06
 8.5714E+01 5.3144E-06
 8.6000E+01 5.1392E-06
 8.6286E+01 4.9691E-06
 8.6571E+01 4.8044E-06
 8.6857E+01 4.6444E-06
 8.7143E+01 4.4893E-06
 8.7429E+01 4.3388E-06
 8.7714E+01 4.1930E-06
 8.8000E+01 4.0515E-06
 8.8286E+01 3.9144E-06
 8.8571E+01 3.7816E-06
 8.8857E+01 3.6529E-06
 8.9143E+01 3.5282E-06
 8.9429E+01 3.4073E-06
 8.9714E+01 3.2902E-06
 9.0000E+01 3.1769E-06
 9.0286E+01 3.0671E-06
 9.0571E+01 2.9608E-06
 9.0857E+01 2.8580E-06
 9.1143E+01 2.7582E-06
 9.1429E+01 2.6617E-06
 9.1714E+01 2.5682E-06
 9.2000E+01 2.4777E-06
 9.2286E+01 2.3902E-06
 9.2571E+01 2.3054E-06
 9.2857E+01 2.2234E-06
 9.3143E+01 2.1441E-06
 9.3429E+01 2.0674E-06
 9.3714E+01 1.9931E-06
 9.4000E+01 1.9215E-06
 9.4286E+01 1.8521E-06
 9.4571E+01 1.7851E-06
 9.4857E+01 1.7205E-06
 9.5143E+01 1.6578E-06
 9.5429E+01 1.5974E-06
 9.5714E+01 1.5389E-06
 9.6000E+01 1.4825E-06
 9.6286E+01 1.4278E-06
 9.6571E+01 1.3750E-06
 9.6857E+01 1.3240E-06
 9.7143E+01 1.2748E-06
 9.7429E+01 1.2273E-06
 9.7714E+01 1.1814E-06
 9.8000E+01 1.1371E-06
 9.8286E+01 1.0943E-06
 9.8571E+01 1.0529E-06
 9.8857E+01 1.0131E-06
 9.9143E+01 9.7464E-07
 9.9429E+01 9.3758E-07
 9.9714E+01 9.0182E-07
 1.0000E+02 8.6733E-07
 1.0029E+02 8.3419E-07
 1.0057E+02 8.0207E-07
 1.0086E+02 7.7115E-07
 1.0114E+02 7.4131E-07
 1.0143E+02 7.1255E-07
 1.0171E+02 6.8485E-07
 1.0200E+02 6.5812E-07
 1.0229E+02 6.3241E-07
 1.0257E+02 6.0762E-07
 1.0286E+02 5.8374E-07
 1.0314E+02 5.6069E-07
 1.0343E+02 5.3851E-07
 1.0371E+02 5.1716E-07
 1.0400E+02 4.9661E-07
 1.0429E+02 4.7681E-07
 1.0457E+02 4.5778E-07
 1.0486E+02 4.3949E-07
 1.0514E+02 4.2184E-07
 1.0543E+02 4.0486E-07
 1.0571E+02 3.8852E-07
 1.0600E+02 3.7280E-07
 1.0629E+02 3.5764E-07
 1.0657E+02 3.4312E-07
 1.0686E+02 3.2910E-07
 1.0714E+02 3.1561E-07
 1.0743E+02 3.0270E-07
 1.0771E+02 2.9023E-07
 1.0800E+02 2.7827E-07
 1.0829E+02 2.6675E-07
 1.0857E+02 2.5571E-07
 1.0886E+02 2.4506E-07
 1.0914E+02 2.3484E-07
 1.0943E+02 2.2503E-07
 1.0971E+02 2.1560E-07
 1.1000E+02 2.0657E-07
 1.1029E+02 1.9788E-07
 1.1057E+02 1.8955E-07
 1.1086E+02 1.8156E-07
 1.1114E+02 1.7386E-07
 1.1143E+02 1.6646E-07
 1.1171E+02 1.5934E-07
 1.1200E+02 1.5250E-07
 1.1229E+02 1.4596E-07
 1.1257E+02 1.3966E-07
 1.1286E+02 1.3365E-07
 1.1314E+02 1.2788E-07
 1.1343E+02 1.2235E-07
 1.1371E+02 1.1703E-07
 1.1400E+02 1.1195E-07
 1.1429E+02 1.0706E-07
 1.1457E+02 1.0239E-07
 1.1486E+02 9.7902E-08
 1.1514E+02 9.3601E-08
 1.1543E+02 8.9500E-08
 1.1571E+02 8.5533E-08
 1.1600E+02 8.1768E-08
 1.1629E+02 7.8144E-08
 1.1657E+02 7.4665E-08
 1.1686E+02 7.1335E-08
 1.1714E+02 6.8147E-08
 1.1743E+02 6.5090E-08
 1.1771E+02 6.2160E-08
 1.1800E+02 5.9370E-08
 1.1829E+02 5.6708E-08
 1.1857E+02 5.4150E-08
 1.1886E+02 5.1712E-08
 1.1914E+02 4.9370E-08
 1.1943E+02 4.7140E-08
 1.1971E+02 4.4991E-08
 1.2000E+02 4.2933E-08
 1.2029E+02 4.0963E-08
 1.2057E+02 3.9073E-08
 1.2086E+02 3.7279E-08
 1.2114E+02 3.5545E-08
 1.2143E+02 3.3919E-08
 1.2171E+02 3.2346E-08
 1.2200E+02 3.0855E-08
 1.2229E+02 2.9411E-08
 1.2257E+02 2.8032E-08
 1.2286E+02 2.6722E-08
 1.2314E+02 2.5461E-08
 1.2343E+02 2.4262E-08
 1.2371E+02 2.3122E-08
 1.2400E+02 2.2036E-08
 1.2429E+02 2.0992E-08
 1.2457E+02 2.0001E-08
 1.2486E+02 1.9040E-08
 1.2514E+02 1.8130E-08
 1.2543E+02 1.7262E-08
 1.2571E+02 1.6435E-08
 1.2600E+02 1.5647E-08
 1.2629E+02 1.4899E-08
 1.2657E+02 1.4178E-08
 1.2686E+02 1.3497E-08
 1.2714E+02 1.2839E-08
 1.2743E+02 1.2216E-08
 1.2771E+02 1.1619E-08
 1.2800E+02 1.1048E-08
 1.2829E+02 1.0507E-08
 1.2857E+02 9.9957E-09
 1.2886E+02 9.5064E-09
 1.2914E+02 9.0376E-09
 1.2943E+02 8.6012E-09
 1.2971E+02 8.1714E-09
 1.3000E+02 7.7705E-09
 1.3029E+02 7.3811E-09
 1.3057E+02 7.0156E-09
 1.3086E+02 6.6683E-09
 1.3114E+02 6.3377E-09
 1.3143E+02 6.0253E-09
 1.3171E+02 5.7241E-09
 1.3200E+02 5.4338E-09
 1.3229E+02 5.1623E-09
 1.3257E+02 4.8997E-09
 1.3286E+02 4.6532E-09
 1.3314E+02 4.4185E-09
 1.3343E+02 4.1888E-09
 1.3371E+02 3.9805E-09
 1.3400E+02 3.7783E-09
 1.3429E+02 3.5909E-09
 1.3457E+02 3.4056E-09
 1.3486E+02 3.2312E-09
 1.3514E+02 3.0643E-09
 1.3543E+02 2.9073E-09
 1.3571E+02 2.7583E-09
 1.3600E+02 2.6143E-09
 1.3629E+02 2.4795E-09
 1.3657E+02 2.3478E-09
 1.3686E+02 2.2264E-09
 1.3714E+02 2.1090E-09
 1.3743E+02 1.9973E-09
 1.3771E+02 1.8948E-09
 1.3800E+02 1.7930E-09
 1.3829E+02 1.7014E-09
 1.3857E+02 1.6111E-09
 1.3886E+02 1.5253E-09
 1.3914E+02 1.4474E-09
 1.3943E+02 1.3695E-09
 1.3971E+02 1.2981E-09
 1.4000E+02 1.2271E-09
 1.4029E+02 1.1620E-09
 1.4057E+02 1.1009E-09
 1.4086E+02 1.0412E-09
 1.4114E+02 9.8587E-10
 1.4143E+02 9.3587E-10
 1.4171E+02 8.8422E-10
 1.4200E+02 8.3736E-10
 1.4229E+02 7.9118E-10
 1.4257E+02 7.4802E-10
 1.4286E+02 7.0743E-10
 1.4314E+02 6.6911E-10
 1.4343E+02 6.3319E-10
 1.4371E+02 5.9720E-10
 1.4400E+02 5.6609E-10
 1.4429E+02 5.3397E-10
 1.4457E+02 5.0622E-10
 1.4486E+02 4.7806E-10
 1.4514E+02 4.5222E-10
 1.4543E+02 4.2728E-10
 1.4571E+02 4.0381E-10
 1.4600E+02 3.8128E-10
 1.4629E+02 3.5957E-10
 1.4657E+02 3.3988E-10
 1.4686E+02 3.1968E-10
 1.4714E+02 3.0191E-10
 1.4743E+02 2.8430E-10
 1.4771E+02 2.6835E-10
 1.4800E+02 2.5396E-10
 1.4829E+02 2.3910E-10
 1.4857E+02 2.2530E-10
 1.4886E+02 2.1307E-10
 1.4914E+02 2.0092E-10
 1.4943E+02 1.9086E-10
 1.4971E+02 1.7964E-10
 1.5000E+02 1.6914E-10
 1.5029E+02 1.5920E-10
 1.5057E+02 1.4955E-10
 1.5086E+02 1.4157E-10
 1.5114E+02 1.3296E-10
 1.5143E+02 1.2603E-10
 1.5171E+02 1.1873E-10
 1.5200E+02 1.1264E-10
 1.5229E+02 1.0588E-10
 1.5257E+02 9.9581E-11
 1.5286E+02 9.4056E-11
 1.5314E+02 8.8145E-11
 1.5343E+02 8.3204E-11
 1.5371E+02 7.7791E-11
 1.5400E+02 7.3697E-11
 1.5429E+02 6.9436E-11
 1.5457E+02 6.6011E-11
 1.5486E+02 6.1916E-11
 1.5514E+02 5.8246E-11
 1.5543E+02 5.4773E-11
 1.5571E+02 5.1064E-11
 1.5600E+02 4.8277E-11
 1.5629E+02 4.5171E-11
 1.5657E+02 4.2553E-11
 1.5686E+02 4.0059E-11
 1.5714E+02 3.7985E-11
 1.5743E+02 3.5730E-11
 1.5771E+02 3.3682E-11
 1.5800E+02 3.1869E-11
 1.5829E+02 3.0132E-11
 1.5857E+02 2.8008E-11
 1.5886E+02 2.6151E-11
 1.5914E+02 2.4440E-11
 1.5943E+02 2.2886E-11
 1.5971E+02 2.1642E-11
 1.6000E+02 2.0349E-11
 1.6029E+02 1.9253E-11
 1.6057E+02 1.8092E-11
 1.6086E+02 1.7004E-11
 1.6114E+02 1.5887E-11
 1.6143E+02 1.5058E-11
 1.6171E+02 1.4124E-11
 1.6200E+02 1.3361E-11
 1.6229E+02 1.2458E-11
 1.6257E+02 1.1612E-11
 1.6286E+02 1.1009E-11
 1.6314E+02 1.0061E-11
 1.6343E+02 9.4359E-12
 1.6371E+02 8.7393E-12
 1.6400E+02 8.1290E-12
 1.6429E+02 7.5977E-12
 1.6457E+02 7.1146E-12
 1.6486E+02 6.7773E-12
 1.6514E+02 6.3579E-12
 1.6543E+02 6.0528E-12
 1.6571E+02 5.5754E-12
 1.6600E+02 5.2411E-12
 1.6629E+02 4.8709E-12
 1.6657E+02 4.5867E-12
 1.6686E+02 4.3160E-12
 1.6714E+02 4.0995E-12
 1.6743E+02 3.8857E-12
 1.6771E+02 3.6741E-12
 1.6800E+02 3.4762E-12
 1.6829E+02 3.1010E-12
 1.6857E+02 2.9616E-12
 1.6886E+02 2.7706E-12
 1.6914E+02 2.6397E-12
 1.6943E+02 2.4321E-12
 1.6971E+02 2.3404E-12
 1.7000E+02 2.2617E-12
 1.7029E+02 2.1466E-12
 1.7057E+02 2.0211E-12
 1.7086E+02 1.8758E-12
 1.7114E+02 1.7371E-12
 1.7143E+02 1.5640E-12
 1.7171E+02 1.4817E-12
 1.7200E+02 1.3440E-12
 1.7229E+02 1.2734E-12
 1.7257E+02 1.1759E-12
 1.7286E+02 1.1345E-12
 1.7314E+02 1.0188E-12
 1.7343E+02 9.6798E-13
 1.7371E+02 8.4177E-13
 1.7400E+02 7.5725E-13
 1.7429E+02 7.2008E-13
 1.7457E+02 6.8490E-13
 1.7486E+02 6.5751E-13
 1.7514E+02 5.7816E-13
 1.7543E+02 5.9281E-13
 1.7571E+02 5.2126E-13
 1.7600E+02 5.2976E-13
 1.7629E+02 4.9099E-13
 1.7657E+02 4.7621E-13
 1.7686E+02 4.1712E-13
 1.7714E+02 3.8982E-13
 1.7743E+02 3.6779E-13
 1.7771E+02 3.2750E-13
 1.7800E+02 3.2874E-13
 1.7829E+02 2.6441E-13
 1.7857E+02 2.8292E-13
 1.7886E+02 2.5509E-13
 1.7914E+02 2.3402E-13
 1.7943E+02 2.2387E-13
 1.7971E+02 2.0258E-13
 1.8000E+02 2.0504E-13
 1.8029E+02 1.8220E-13
 1.8057E+02 1.7413E-13
 1.8086E+02 1.5729E-13
 1.8114E+02 1.4714E-13
 1.8143E+02 1.3472E-13
 1.8171E+02 1.0667E-13
 1.8200E+02 9.5976E-14
 1.8229E+02 8.7105E-14
 1.8257E+02 7.9568E-14
 1.8286E+02 8.6923E-14
 1.8314E+02 9.9169E-14
 1.8343E+02 8.9911E-14
 1.8371E+02 9.8012E-14
 1.8400E+02 9.1381E-14
 1.8429E+02 8.0017E-14
 1.8457E+02 7.4464E-14
 1.8486E+02 6.2016E-14
 1.8514E+02 6.3014E-14
 1.8543E+02 5.0508E-14
 1.8571E+02 5.3951E-14
 1.8600E+02 4.6000E-14
 1.8629E+02 4.5278E-14
 1.8657E+02 4.6547E-14
 1.8686E+02 4.2240E-14
 1.8714E+02 4.3736E-14
 1.8743E+02 4.0721E-14
 1.8771E+02 4.0113E-14
 1.8800E+02 3.4392E-14
 1.8829E+02 3.1260E-14
 1.8857E+02 2.6134E-14
 1.8886E+02 2.5103E-14
 1.8914E+02 1.9764E-14
 1.8943E+02 1.2878E-14
 1.8971E+02 1.4851E-14
 1.9000E+02 1.3338E-14
 1.9029E+02 1.1547E-14
 1.9057E+02 1.6663E-14
 1.9086E+02 1.5649E-14
 1.9114E+02 1.4203E-14
 1.9143E+02 1.3516E-14
 1.9171E+02 1.2941E-14
 1.9200E+02 1.2711E-14
 1.9229E+02 1.0382E-14
 1.9257E+02 9.6873E-15
 1.9286E+02 1.0020E-14
 1.9314E+02 4.3763E-15
 1.9343E+02 6.1717E-15
 1.9371E+02 2.8321E-15
 1.9400E+02 2.3573E-15
 1.9429E+02 2.6259E-15
 1.9457E+02 1.1568E-15
 1.9486E+02 2.7208E-15
 1.9514E+02 7.1098E-16
 1.9543E+02 3.6170E-15
 1.9571E+02 5.5220E-16
 1.9600E+02 1.9475E-15
 1.9629E+02 1.0724E-15
 1.9657E+02 3.2757E-16
 1.9686E+02 5.7996E-16
 1.9714E+02 1.0818E-16
 1.9743E+02 5.0767E-18
 1.9771E+02 2.1371E-17
 1.9800E+02 7.1457E-18
 1.9829E+02 7.5185E-19
 1.9857E+02 1.2373E-20
 1.9886E+02 4.9390E-20
 1.9914E+02 2.7557E-20
 1.9943E+02 3.6705E-21
 1.9971E+02 7.4100E-22
 2.0000E+02 5.0697E-22
