 0.0000E+00 8.1317E-04
 2.8571E-01 8.1305E-04
 5.7143E-01 8.1292E-04
 8.5714E-01 8.1269E-04
 1.1429E+00 8.1239E-04
 1.4286E+00 8.1198E-04
 1.7143E+00 8.1148E-04
 2.0000E+00 8.1089E-04
 2.2857E+00 8.1020E-04
 2.5714E+00 8.0942E-04
 2.8571E+00 8.0853E-04
 3.1429E+00 8.0759E-04
 3.4286E+00 8.0654E-04
 3.7143E+00 8.0541E-04
 4.0000E+00 8.0419E-04
 4.2857E+00 8.0288E-04
 4.5714E+00 8.0148E-04
 4.8571E+00 7.9999E-04
 5.1429E+00 7.9840E-04
 5.4286E+00 7.9673E-04
 5.7143E+00 7.9498E-04
 6.0000E+00 7.9313E-04
 6.2857E+00 7.9122E-04
 6.5714E+00 7.8921E-04
 6.8571E+00 7.8712E-04
 7.1429E+00 7.8495E-04
 7.4286E+00 7.8270E-04
 7.7143E+00 7.8036E-04
 8.0000E+00 7.7794E-04
 8.2857E+00 7.7543E-04
 8.5714E+00 7.7285E-04
 8.8571E+00 7.7019E-04
 9.1429E+00 7.6747E-04
 9.4286E+00 7.6467E-04
 9.7143E+00 7.6179E-04
 1.0000E+01 7.5884E-04
 1.0286E+01 7.5581E-04
 1.0571E+01 7.5271E-04
 1.0857E+01 7.4953E-04
 1.1143E+01 7.4628E-04
 1.1429E+01 7.4295E-04
 1.1714E+01 7.3957E-04
 1.2000E+01 7.3611E-04
 1.2286E+01 7.3259E-04
 1.2571E+01 7.2901E-04
 1.2857E+01 7.2536E-04
 1.3143E+01 7.2165E-04
 1.3429E+01 7.1788E-04
 1.3714E+01 7.1404E-04
 1.4000E+01 7.1014E-04
 1.4286E+01 7.0619E-04
 1.4571E+01 7.0218E-04
 1.4857E+01 6.9812E-04
 1.5143E+01 6.9400E-04
 1.5429E+01 6.8984E-04
 1.5714E+01 6.8561E-04
 1.6000E+01 6.8133E-04
 1.6286E+01 6.7701E-04
 1.6571E+01 6.7263E-04
 1.6857E+01 6.6821E-04
 1.7143E+01 6.6374E-04
 1.7429E+01 6.5922E-04
 1.7714E+01 6.5467E-04
 1.8000E+01 6.5007E-04
 1.8286E+01 6.4544E-04
 1.8571E+01 6.4076E-04
 1.8857E+01 6.3605E-04
 1.9143E+01 6.3129E-04
 1.9429E+01 6.2650E-04
 1.9714E+01 6.2168E-04
 2.0000E+01 6.1683E-04
 2.0286E+01 6.1195E-04
 2.0571E+01 6.0703E-04
 2.0857E+01 6.0209E-04
 2.1143E+01 5.9712E-04
 2.1429E+01 5.9212E-04
 2.1714E+01 5.8710E-04
 2.2000E+01 5.8206E-04
 2.2286E+01 5.7700E-04
 2.2571E+01 5.7192E-04
 2.2857E+01 5.6681E-04
 2.3143E+01 5.6170E-04
 2.3429E+01 5.5656E-04
 2.3714E+01 5.5141E-04
 2.4000E+01 5.4624E-04
 2.4286E+01 5.4106E-04
 2.4571E+01 5.3587E-04
 2.4857E+01 5.3067E-04
 2.5143E+01 5.2546E-04
 2.5429E+01 5.2025E-04
 2.5714E+01 5.1502E-04
 2.6000E+01 5.0979E-04
 2.6286E+01 5.0456E-04
 2.6571E+01 4.9933E-04
 2.6857E+01 4.9409E-04
 2.7143E+01 4.8885E-04
 2.7429E+01 4.8362E-04
 2.7714E+01 4.7838E-04
 2.8000E+01 4.7315E-04
 2.8286E+01 4.6793E-04
 2.8571E+01 4.6271E-04
 2.8857E+01 4.5750E-04
 2.9143E+01 4.5229E-04
 2.9429E+01 4.4709E-04
 2.9714E+01 4.4191E-04
 3.0000E+01 4.3673E-04
 3.0286E+01 4.3157E-04
 3.0571E+01 4.2642E-04
 3.0857E+01 4.2128E-04
 3.1143E+01 4.1616E-04
 3.1429E+01 4.1106E-04
 3.1714E+01 4.0597E-04
 3.2000E+01 4.0089E-04
 3.2286E+01 3.9584E-04
 3.2571E+01 3.9081E-04
 3.2857E+01 3.8580E-04
 3.3143E+01 3.8081E-04
 3.3429E+01 3.7584E-04
 3.3714E+01 3.7090E-04
 3.4000E+01 3.6597E-04
 3.4286E+01 3.6108E-04
 3.4571E+01 3.5620E-04
 3.4857E+01 3.5136E-04
 3.5143E+01 3.4654E-04
 3.5429E+01 3.4175E-04
 3.5714E+01 3.3699E-04
 3.6000E+01 3.3225E-04
 3.6286E+01 3.2755E-04
 3.6571E+01 3.2288E-04
 3.6857E+01 3.1823E-04
 3.7143E+01 3.1362E-04
 3.7429E+01 3.0903E-04
 3.7714E+01 3.0449E-04
 3.8000E+01 2.9997E-04
 3.8286E+01 2.9549E-04
 3.8571E+01 2.9104E-04
 3.8857E+01 2.8664E-04
 3.9143E+01 2.8226E-04
 3.9429E+01 2.7792E-04
 3.9714E+01 2.7361E-04
 4.0000E+01 2.6934E-04
 4.0286E+01 2.6511E-04
 4.0571E+01 2.6091E-04
 4.0857E+01 2.5676E-04
 4.1143E+01 2.5263E-04
 4.1429E+01 2.4855E-04
 4.1714E+01 2.4451E-04
 4.2000E+01 2.4050E-04
 4.2286E+01 2.3653E-04
 4.2571E+01 2.3261E-04
 4.2857E+01 2.2872E-04
 4.3143E+01 2.2487E-04
 4.3429E+01 2.2106E-04
 4.3714E+01 2.1730E-04
 4.4000E+01 2.1357E-04
 4.4286E+01 2.0988E-04
 4.4571E+01 2.0623E-04
 4.4857E+01 2.0263E-04
 4.5143E+01 1.9906E-04
 4.5429E+01 1.9554E-04
 4.5714E+01 1.9205E-04
 4.6000E+01 1.8861E-04
 4.6286E+01 1.8520E-04
 4.6571E+01 1.8184E-04
 4.6857E+01 1.7852E-04
 4.7143E+01 1.7524E-04
 4.7429E+01 1.7200E-04
 4.7714E+01 1.6881E-04
 4.8000E+01 1.6565E-04
 4.8286E+01 1.6253E-04
 4.8571E+01 1.5945E-04
 4.8857E+01 1.5642E-04
 4.9143E+01 1.5342E-04
 4.9429E+01 1.5047E-04
 4.9714E+01 1.4755E-04
 5.0000E+01 1.4468E-04
 5.0286E+01 1.4184E-04
 5.0571E+01 1.3905E-04
 5.0857E+01 1.3630E-04
 5.1143E+01 1.3358E-04
 5.1429E+01 1.3091E-04
 5.1714E+01 1.2827E-04
 5.2000E+01 1.2567E-04
 5.2286E+01 1.2311E-04
 5.2571E+01 1.2059E-04
 5.2857E+01 1.1811E-04
 5.3143E+01 1.1566E-04
 5.3429E+01 1.1326E-04
 5.3714E+01 1.1089E-04
 5.4000E+01 1.0856E-04
 5.4286E+01 1.0626E-04
 5.4571E+01 1.0401E-04
 5.4857E+01 1.0178E-04
 5.5143E+01 9.9600E-05
 5.5429E+01 9.7450E-05
 5.5714E+01 9.5337E-05
 5.6000E+01 9.3258E-05
 5.6286E+01 9.1216E-05
 5.6571E+01 8.9207E-05
 5.6857E+01 8.7234E-05
 5.7143E+01 8.5294E-05
 5.7429E+01 8.3387E-05
 5.7714E+01 8.1515E-05
 5.8000E+01 7.9674E-05
 5.8286E+01 7.7868E-05
 5.8571E+01 7.6093E-05
 5.8857E+01 7.4351E-05
 5.9143E+01 7.2641E-05
 5.9429E+01 7.0961E-05
 5.9714E+01 6.9314E-05
 6.0000E+01 6.7696E-05
 6.0286E+01 6.6108E-05
 6.0571E+01 6.4550E-05
 6.0857E+01 6.3021E-05
 6.1143E+01 6.1522E-05
 6.1429E+01 6.0052E-05
 6.1714E+01 5.8611E-05
 6.2000E+01 5.7198E-05
 6.2286E+01 5.5812E-05
 6.2571E+01 5.4455E-05
 6.2857E+01 5.3124E-05
 6.3143E+01 5.1820E-05
 6.3429E+01 5.0542E-05
 6.3714E+01 4.9290E-05
 6.4000E+01 4.8063E-05
 6.4286E+01 4.6862E-05
 6.4571E+01 4.5685E-05
 6.4857E+01 4.4534E-05
 6.5143E+01 4.3406E-05
 6.5429E+01 4.2302E-05
 6.5714E+01 4.1222E-05
 6.6000E+01 4.0165E-05
 6.6286E+01 3.9130E-05
 6.6571E+01 3.8117E-05
 6.6857E+01 3.7127E-05
 6.7143E+01 3.6159E-05
 6.7429E+01 3.5211E-05
 6.7714E+01 3.4285E-05
 6.8000E+01 3.3379E-05
 6.8286E+01 3.2493E-05
 6.8571E+01 3.1628E-05
 6.8857E+01 3.0781E-05
 6.9143E+01 2.9954E-05
 6.9429E+01 2.9147E-05
 6.9714E+01 2.8357E-05
 7.0000E+01 2.7586E-05
 7.0286E+01 2.6834E-05
 7.0571E+01 2.6098E-05
 7.0857E+01 2.5381E-05
 7.1143E+01 2.4679E-05
 7.1429E+01 2.3995E-05
 7.1714E+01 2.3326E-05
 7.2000E+01 2.2674E-05
 7.2286E+01 2.2038E-05
 7.2571E+01 2.1417E-05
 7.2857E+01 2.0811E-05
 7.3143E+01 2.0220E-05
 7.3429E+01 1.9644E-05
 7.3714E+01 1.9082E-05
 7.4000E+01 1.8533E-05
 7.4286E+01 1.7999E-05
 7.4571E+01 1.7478E-05
 7.4857E+01 1.6971E-05
 7.5143E+01 1.6476E-05
 7.5429E+01 1.5994E-05
 7.5714E+01 1.5524E-05
 7.6000E+01 1.5066E-05
 7.6286E+01 1.4620E-05
 7.6571E+01 1.4185E-05
 7.6857E+01 1.3763E-05
 7.7143E+01 1.3350E-05
 7.7429E+01 1.2950E-05
 7.7714E+01 1.2559E-05
 7.8000E+01 1.2179E-05
 7.8286E+01 1.1809E-05
 7.8571E+01 1.1449E-05
 7.8857E+01 1.1099E-05
 7.9143E+01 1.0758E-05
 7.9429E+01 1.0427E-05
 7.9714E+01 1.0104E-05
 8.0000E+01 9.7913E-06
 8.0286E+01 9.4863E-06
 8.0571E+01 9.1900E-06
 8.0857E+01 8.9020E-06
 8.1143E+01 8.6219E-06
 8.1429E+01 8.3500E-06
 8.1714E+01 8.0855E-06
 8.2000E+01 7.8286E-06
 8.2286E+01 7.5786E-06
 8.2571E+01 7.3363E-06
 8.2857E+01 7.1007E-06
 8.3143E+01 6.8720E-06
 8.3429E+01 6.6496E-06
 8.3714E+01 6.4340E-06
 8.4000E+01 6.2244E-06
 8.4286E+01 6.0210E-06
 8.4571E+01 5.8234E-06
 8.4857E+01 5.6320E-06
 8.5143E+01 5.4461E-06
 8.5429E+01 5.2661E-06
 8.5714E+01 5.0913E-06
 8.6000E+01 4.9219E-06
 8.6286E+01 4.7576E-06
 8.6571E+01 4.5981E-06
 8.6857E+01 4.4435E-06
 8.7143E+01 4.2935E-06
 8.7429E+01 4.1483E-06
 8.7714E+01 4.0073E-06
 8.8000E+01 3.8709E-06
 8.8286E+01 3.7386E-06
 8.8571E+01 3.6103E-06
 8.8857E+01 3.4862E-06
 8.9143E+01 3.3658E-06
 8.9429E+01 3.2492E-06
 8.9714E+01 3.1363E-06
 9.0000E+01 3.0270E-06
 9.0286E+01 2.9214E-06
 9.0571E+01 2.8189E-06
 9.0857E+01 2.7200E-06
 9.1143E+01 2.6241E-06
 9.1429E+01 2.5314E-06
 9.1714E+01 2.4415E-06
 9.2000E+01 2.3547E-06
 9.2286E+01 2.2706E-06
 9.2571E+01 2.1894E-06
 9.2857E+01 2.1108E-06
 9.3143E+01 2.0347E-06
 9.3429E+01 1.9612E-06
 9.3714E+01 1.8901E-06
 9.4000E+01 1.8213E-06
 9.4286E+01 1.7549E-06
 9.4571E+01 1.6907E-06
 9.4857E+01 1.6286E-06
 9.5143E+01 1.5687E-06
 9.5429E+01 1.5108E-06
 9.5714E+01 1.4549E-06
 9.6000E+01 1.4009E-06
 9.6286E+01 1.3487E-06
 9.6571E+01 1.2984E-06
 9.6857E+01 1.2498E-06
 9.7143E+01 1.2028E-06
 9.7429E+01 1.1575E-06
 9.7714E+01 1.1137E-06
 9.8000E+01 1.0715E-06
 9.8286E+01 1.0308E-06
 9.8571E+01 9.9157E-07
 9.8857E+01 9.5369E-07
 9.9143E+01 9.1713E-07
 9.9429E+01 8.8190E-07
 9.9714E+01 8.4787E-07
 1.0000E+02 8.1510E-07
 1.0029E+02 7.8343E-07
 1.0057E+02 7.5302E-07
 1.0086E+02 7.2371E-07
 1.0114E+02 6.9541E-07
 1.0143E+02 6.6823E-07
 1.0171E+02 6.4200E-07
 1.0200E+02 6.1675E-07
 1.0229E+02 5.9240E-07
 1.0257E+02 5.6892E-07
 1.0286E+02 5.4631E-07
 1.0314E+02 5.2454E-07
 1.0343E+02 5.0355E-07
 1.0371E+02 4.8336E-07
 1.0400E+02 4.6397E-07
 1.0429E+02 4.4529E-07
 1.0457E+02 4.2731E-07
 1.0486E+02 4.1000E-07
 1.0514E+02 3.9338E-07
 1.0543E+02 3.7740E-07
 1.0571E+02 3.6200E-07
 1.0600E+02 3.4720E-07
 1.0629E+02 3.3297E-07
 1.0657E+02 3.1930E-07
 1.0686E+02 3.0616E-07
 1.0714E+02 2.9350E-07
 1.0743E+02 2.8136E-07
 1.0771E+02 2.6965E-07
 1.0800E+02 2.5841E-07
 1.0829E+02 2.4759E-07
 1.0857E+02 2.3716E-07
 1.0886E+02 2.2719E-07
 1.0914E+02 2.1760E-07
 1.0943E+02 2.0844E-07
 1.0971E+02 1.9963E-07
 1.1000E+02 1.9120E-07
 1.1029E+02 1.8305E-07
 1.1057E+02 1.7525E-07
 1.1086E+02 1.6775E-07
 1.1114E+02 1.6054E-07
 1.1143E+02 1.5364E-07
 1.1171E+02 1.4700E-07
 1.1200E+02 1.4067E-07
 1.1229E+02 1.3458E-07
 1.1257E+02 1.2872E-07
 1.1286E+02 1.2313E-07
 1.1314E+02 1.1774E-07
 1.1343E+02 1.1258E-07
 1.1371E+02 1.0765E-07
 1.1400E+02 1.0292E-07
 1.1429E+02 9.8388E-08
 1.1457E+02 9.4048E-08
 1.1486E+02 8.9908E-08
 1.1514E+02 8.5921E-08
 1.1543E+02 8.2119E-08
 1.1571E+02 7.8439E-08
 1.1600E+02 7.4928E-08
 1.1629E+02 7.1579E-08
 1.1657E+02 6.8377E-08
 1.1686E+02 6.5316E-08
 1.1714E+02 6.2362E-08
 1.1743E+02 5.9551E-08
 1.1771E+02 5.6851E-08
 1.1800E+02 5.4275E-08
 1.1829E+02 5.1797E-08
 1.1857E+02 4.9433E-08
 1.1886E+02 4.7158E-08
 1.1914E+02 4.5004E-08
 1.1943E+02 4.2940E-08
 1.1971E+02 4.0965E-08
 1.2000E+02 3.9081E-08
 1.2029E+02 3.7265E-08
 1.2057E+02 3.5536E-08
 1.2086E+02 3.3882E-08
 1.2114E+02 3.2292E-08
 1.2143E+02 3.0792E-08
 1.2171E+02 2.9350E-08
 1.2200E+02 2.7974E-08
 1.2229E+02 2.6658E-08
 1.2257E+02 2.5391E-08
 1.2286E+02 2.4202E-08
 1.2314E+02 2.3042E-08
 1.2343E+02 2.1947E-08
 1.2371E+02 2.0899E-08
 1.2400E+02 1.9901E-08
 1.2429E+02 1.8943E-08
 1.2457E+02 1.8034E-08
 1.2486E+02 1.7168E-08
 1.2514E+02 1.6343E-08
 1.2543E+02 1.5556E-08
 1.2571E+02 1.4804E-08
 1.2600E+02 1.4086E-08
 1.2629E+02 1.3398E-08
 1.2657E+02 1.2751E-08
 1.2686E+02 1.2131E-08
 1.2714E+02 1.1537E-08
 1.2743E+02 1.0970E-08
 1.2771E+02 1.0433E-08
 1.2800E+02 9.9090E-09
 1.2829E+02 9.4287E-09
 1.2857E+02 8.9556E-09
 1.2886E+02 8.5167E-09
 1.2914E+02 8.0991E-09
 1.2943E+02 7.6922E-09
 1.2971E+02 7.3153E-09
 1.3000E+02 6.9461E-09
 1.3029E+02 6.6040E-09
 1.3057E+02 6.2704E-09
 1.3086E+02 5.9546E-09
 1.3114E+02 5.6535E-09
 1.3143E+02 5.3694E-09
 1.3171E+02 5.1014E-09
 1.3200E+02 4.8426E-09
 1.3229E+02 4.5957E-09
 1.3257E+02 4.3617E-09
 1.3286E+02 4.1387E-09
 1.3314E+02 3.9305E-09
 1.3343E+02 3.7282E-09
 1.3371E+02 3.5336E-09
 1.3400E+02 3.3508E-09
 1.3429E+02 3.1762E-09
 1.3457E+02 3.0107E-09
 1.3486E+02 2.8548E-09
 1.3514E+02 2.7062E-09
 1.3543E+02 2.5679E-09
 1.3571E+02 2.4337E-09
 1.3600E+02 2.3057E-09
 1.3629E+02 2.1853E-09
 1.3657E+02 2.0723E-09
 1.3686E+02 1.9643E-09
 1.3714E+02 1.8618E-09
 1.3743E+02 1.7636E-09
 1.3771E+02 1.6682E-09
 1.3800E+02 1.5821E-09
 1.3829E+02 1.4945E-09
 1.3857E+02 1.4170E-09
 1.3886E+02 1.3388E-09
 1.3914E+02 1.2679E-09
 1.3943E+02 1.2018E-09
 1.3971E+02 1.1382E-09
 1.4000E+02 1.0788E-09
 1.4029E+02 1.0206E-09
 1.4057E+02 9.6811E-10
 1.4086E+02 9.1349E-10
 1.4114E+02 8.6315E-10
 1.4143E+02 8.1609E-10
 1.4171E+02 7.7197E-10
 1.4200E+02 7.3010E-10
 1.4229E+02 6.9109E-10
 1.4257E+02 6.5280E-10
 1.4286E+02 6.1761E-10
 1.4314E+02 5.8278E-10
 1.4343E+02 5.5093E-10
 1.4371E+02 5.1988E-10
 1.4400E+02 4.9104E-10
 1.4429E+02 4.6343E-10
 1.4457E+02 4.3655E-10
 1.4486E+02 4.1310E-10
 1.4514E+02 3.9022E-10
 1.4543E+02 3.6996E-10
 1.4571E+02 3.4862E-10
 1.4600E+02 3.3007E-10
 1.4629E+02 3.1054E-10
 1.4657E+02 2.9270E-10
 1.4686E+02 2.7563E-10
 1.4714E+02 2.5956E-10
 1.4743E+02 2.4573E-10
 1.4771E+02 2.3095E-10
 1.4800E+02 2.1912E-10
 1.4829E+02 2.0622E-10
 1.4857E+02 1.9512E-10
 1.4886E+02 1.8429E-10
 1.4914E+02 1.7353E-10
 1.4943E+02 1.6348E-10
 1.4971E+02 1.5395E-10
 1.5000E+02 1.4541E-10
 1.5029E+02 1.3676E-10
 1.5057E+02 1.2912E-10
 1.5086E+02 1.2114E-10
 1.5114E+02 1.1484E-10
 1.5143E+02 1.0786E-10
 1.5171E+02 1.0113E-10
 1.5200E+02 9.5266E-11
 1.5229E+02 9.0054E-11
 1.5257E+02 8.5171E-11
 1.5286E+02 8.0302E-11
 1.5314E+02 7.5882E-11
 1.5343E+02 7.1306E-11
 1.5371E+02 6.6908E-11
 1.5400E+02 6.2815E-11
 1.5429E+02 5.9040E-11
 1.5457E+02 5.5209E-11
 1.5486E+02 5.2158E-11
 1.5514E+02 4.8933E-11
 1.5543E+02 4.6402E-11
 1.5571E+02 4.3596E-11
 1.5600E+02 4.1028E-11
 1.5629E+02 3.8539E-11
 1.5657E+02 3.6121E-11
 1.5686E+02 3.4244E-11
 1.5714E+02 3.1991E-11
 1.5743E+02 3.0133E-11
 1.5771E+02 2.8439E-11
 1.5800E+02 2.7014E-11
 1.5829E+02 2.5348E-11
 1.5857E+02 2.3934E-11
 1.5886E+02 2.2331E-11
 1.5914E+02 2.0671E-11
 1.5943E+02 1.9317E-11
 1.5971E+02 1.8128E-11
 1.6000E+02 1.7128E-11
 1.6029E+02 1.5955E-11
 1.6057E+02 1.5031E-11
 1.6086E+02 1.4028E-11
 1.6114E+02 1.3173E-11
 1.6143E+02 1.2289E-11
 1.6171E+02 1.1373E-11
 1.6200E+02 1.0700E-11
 1.6229E+02 9.9962E-12
 1.6257E+02 9.3914E-12
 1.6286E+02 8.7317E-12
 1.6314E+02 8.3146E-12
 1.6343E+02 7.7859E-12
 1.6371E+02 7.3645E-12
 1.6400E+02 6.9376E-12
 1.6429E+02 6.4653E-12
 1.6457E+02 6.1205E-12
 1.6486E+02 5.7115E-12
 1.6514E+02 5.3501E-12
 1.6543E+02 5.0313E-12
 1.6571E+02 4.7315E-12
 1.6600E+02 4.3847E-12
 1.6629E+02 4.2430E-12
 1.6657E+02 3.9621E-12
 1.6686E+02 3.7451E-12
 1.6714E+02 3.5124E-12
 1.6743E+02 3.3139E-12
 1.6771E+02 3.0535E-12
 1.6800E+02 2.8825E-12
 1.6829E+02 2.7097E-12
 1.6857E+02 2.5284E-12
 1.6886E+02 2.3818E-12
 1.6914E+02 2.1841E-12
 1.6943E+02 2.0296E-12
 1.6971E+02 1.8078E-12
 1.7000E+02 1.7533E-12
 1.7029E+02 1.5397E-12
 1.7057E+02 1.5261E-12
 1.7086E+02 1.4221E-12
 1.7114E+02 1.3526E-12
 1.7143E+02 1.2813E-12
 1.7171E+02 1.1358E-12
 1.7200E+02 1.1112E-12
 1.7229E+02 9.6803E-13
 1.7257E+02 9.2057E-13
 1.7286E+02 8.3014E-13
 1.7314E+02 8.0853E-13
 1.7343E+02 7.4627E-13
 1.7371E+02 7.0825E-13
 1.7400E+02 7.0360E-13
 1.7429E+02 6.6267E-13
 1.7457E+02 6.1467E-13
 1.7486E+02 5.7283E-13
 1.7514E+02 5.4389E-13
 1.7543E+02 4.6821E-13
 1.7571E+02 4.5385E-13
 1.7600E+02 4.0147E-13
 1.7629E+02 3.6346E-13
 1.7657E+02 3.3814E-13
 1.7686E+02 3.0024E-13
 1.7714E+02 2.8944E-13
 1.7743E+02 2.6596E-13
 1.7771E+02 2.6982E-13
 1.7800E+02 2.6091E-13
 1.7829E+02 2.5275E-13
 1.7857E+02 2.4232E-13
 1.7886E+02 2.2682E-13
 1.7914E+02 2.0348E-13
 1.7943E+02 1.7735E-13
 1.7971E+02 1.7367E-13
 1.8000E+02 1.4145E-13
 1.8029E+02 1.3123E-13
 1.8057E+02 1.1911E-13
 1.8086E+02 1.1108E-13
 1.8114E+02 1.1402E-13
 1.8143E+02 9.9671E-14
 1.8171E+02 1.0425E-13
 1.8200E+02 9.6975E-14
 1.8229E+02 9.2420E-14
 1.8257E+02 9.3546E-14
 1.8286E+02 8.5929E-14
 1.8314E+02 8.5791E-14
 1.8343E+02 8.7490E-14
 1.8371E+02 7.4750E-14
 1.8400E+02 6.5750E-14
 1.8429E+02 6.1554E-14
 1.8457E+02 5.1651E-14
 1.8486E+02 4.4044E-14
 1.8514E+02 3.8929E-14
 1.8543E+02 3.8279E-14
 1.8571E+02 3.1330E-14
 1.8600E+02 3.3094E-14
 1.8629E+02 3.3027E-14
 1.8657E+02 3.4021E-14
 1.8686E+02 3.5978E-14
 1.8714E+02 2.6581E-14
 1.8743E+02 3.3496E-14
 1.8771E+02 2.2819E-14
 1.8800E+02 1.9850E-14
 1.8829E+02 1.7568E-14
 1.8857E+02 1.4361E-14
 1.8886E+02 1.9687E-14
 1.8914E+02 9.5344E-15
 1.8943E+02 1.4983E-14
 1.8971E+02 1.1385E-14
 1.9000E+02 1.4330E-14
 1.9029E+02 1.3166E-14
 1.9057E+02 1.2845E-14
 1.9086E+02 1.5142E-14
 1.9114E+02 1.5533E-14
 1.9143E+02 1.3522E-14
 1.9171E+02 6.9667E-15
 1.9200E+02 1.1681E-14
 1.9229E+02 6.0821E-15
 1.9257E+02 7.5770E-15
 1.9286E+02 4.7080E-15
 1.9314E+02 7.5910E-15
 1.9343E+02 5.3396E-15
 1.9371E+02 1.6805E-15
 1.9400E+02 3.1081E-15
 1.9429E+02 9.9517E-16
 1.9457E+02 1.6273E-15
 1.9486E+02 7.2411E-16
 1.9514E+02 2.6093E-15
 1.9543E+02 2.9515E-15
 1.9571E+02 3.5424E-15
 1.9600E+02 4.4057E-15
 1.9629E+02 1.9113E-15
 1.9657E+02 1.0665E-15
 1.9686E+02 9.1849E-16
 1.9714E+02 1.1630E-16
 1.9743E+02 9.3978E-17
 1.9771E+02 7.8470E-17
 1.9800E+02 2.0353E-17
 1.9829E+02 2.6646E-18
 1.9857E+02 2.8284E-19
 1.9886E+02 6.5795E-20
 1.9914E+02 1.5860E-20
 1.9943E+02 9.3207E-21
 1.9971E+02 8.0158E-21
 2.0000E+02 1.6756E-21
