 0.0000E+00 7.8788E-04
 2.8571E-01 7.8780E-04
 5.7143E-01 7.8765E-04
 8.5714E-01 7.8743E-04
 1.1429E+00 7.8712E-04
 1.4286E+00 7.8672E-04
 1.7143E+00 7.8623E-04
 2.0000E+00 7.8566E-04
 2.2857E+00 7.8502E-04
 2.5714E+00 7.8429E-04
 2.8571E+00 7.8348E-04
 3.1429E+00 7.8259E-04
 3.4286E+00 7.8161E-04
 3.7143E+00 7.8054E-04
 4.0000E+00 7.7939E-04
 4.2857E+00 7.7815E-04
 4.5714E+00 7.7684E-04
 4.8571E+00 7.7544E-04
 5.1429E+00 7.7395E-04
 5.4286E+00 7.7239E-04
 5.7143E+00 7.7075E-04
 6.0000E+00 7.6902E-04
 6.2857E+00 7.6722E-04
 6.5714E+00 7.6532E-04
 6.8571E+00 7.6336E-04
 7.1429E+00 7.6132E-04
 7.4286E+00 7.5920E-04
 7.7143E+00 7.5700E-04
 8.0000E+00 7.5472E-04
 8.2857E+00 7.5238E-04
 8.5714E+00 7.4995E-04
 8.8571E+00 7.4747E-04
 9.1429E+00 7.4490E-04
 9.4286E+00 7.4226E-04
 9.7143E+00 7.3955E-04
 1.0000E+01 7.3677E-04
 1.0286E+01 7.3392E-04
 1.0571E+01 7.3100E-04
 1.0857E+01 7.2801E-04
 1.1143E+01 7.2496E-04
 1.1429E+01 7.2184E-04
 1.1714E+01 7.1865E-04
 1.2000E+01 7.1540E-04
 1.2286E+01 7.1209E-04
 1.2571E+01 7.0872E-04
 1.2857E+01 7.0527E-04
 1.3143E+01 7.0178E-04
 1.3429E+01 6.9822E-04
 1.3714E+01 6.9460E-04
 1.4000E+01 6.9092E-04
 1.4286E+01 6.8719E-04
 1.4571E+01 6.8341E-04
 1.4857E+01 6.7958E-04
 1.5143E+01 6.7569E-04
 1.5429E+01 6.7175E-04
 1.5714E+01 6.6776E-04
 1.6000E+01 6.6373E-04
 1.6286E+01 6.5964E-04
 1.6571E+01 6.5551E-04
 1.6857E+01 6.5134E-04
 1.7143E+01 6.4712E-04
 1.7429E+01 6.4286E-04
 1.7714E+01 6.3856E-04
 1.8000E+01 6.3422E-04
 1.8286E+01 6.2983E-04
 1.8571E+01 6.2541E-04
 1.8857E+01 6.2095E-04
 1.9143E+01 6.1646E-04
 1.9429E+01 6.1193E-04
 1.9714E+01 6.0737E-04
 2.0000E+01 6.0277E-04
 2.0286E+01 5.9816E-04
 2.0571E+01 5.9350E-04
 2.0857E+01 5.8882E-04
 2.1143E+01 5.8411E-04
 2.1429E+01 5.7938E-04
 2.1714E+01 5.7462E-04
 2.2000E+01 5.6983E-04
 2.2286E+01 5.6503E-04
 2.2571E+01 5.6020E-04
 2.2857E+01 5.5536E-04
 2.3143E+01 5.5049E-04
 2.3429E+01 5.4562E-04
 2.3714E+01 5.4072E-04
 2.4000E+01 5.3582E-04
 2.4286E+01 5.3089E-04
 2.4571E+01 5.2596E-04
 2.4857E+01 5.2101E-04
 2.5143E+01 5.1606E-04
 2.5429E+01 5.1109E-04
 2.5714E+01 5.0612E-04
 2.6000E+01 5.0114E-04
 2.6286E+01 4.9616E-04
 2.6571E+01 4.9117E-04
 2.6857E+01 4.8618E-04
 2.7143E+01 4.8119E-04
 2.7429E+01 4.7619E-04
 2.7714E+01 4.7120E-04
 2.8000E+01 4.6621E-04
 2.8286E+01 4.6122E-04
 2.8571E+01 4.5623E-04
 2.8857E+01 4.5125E-04
 2.9143E+01 4.4628E-04
 2.9429E+01 4.4131E-04
 2.9714E+01 4.3635E-04
 3.0000E+01 4.3140E-04
 3.0286E+01 4.2646E-04
 3.0571E+01 4.2153E-04
 3.0857E+01 4.1661E-04
 3.1143E+01 4.1170E-04
 3.1429E+01 4.0680E-04
 3.1714E+01 4.0193E-04
 3.2000E+01 3.9706E-04
 3.2286E+01 3.9221E-04
 3.2571E+01 3.8738E-04
 3.2857E+01 3.8256E-04
 3.3143E+01 3.7776E-04
 3.3429E+01 3.7299E-04
 3.3714E+01 3.6823E-04
 3.4000E+01 3.6349E-04
 3.4286E+01 3.5878E-04
 3.4571E+01 3.5409E-04
 3.4857E+01 3.4942E-04
 3.5143E+01 3.4478E-04
 3.5429E+01 3.4016E-04
 3.5714E+01 3.3557E-04
 3.6000E+01 3.3100E-04
 3.6286E+01 3.2645E-04
 3.6571E+01 3.2194E-04
 3.6857E+01 3.1745E-04
 3.7143E+01 3.1299E-04
 3.7429E+01 3.0856E-04
 3.7714E+01 3.0416E-04
 3.8000E+01 2.9979E-04
 3.8286E+01 2.9545E-04
 3.8571E+01 2.9114E-04
 3.8857E+01 2.8687E-04
 3.9143E+01 2.8262E-04
 3.9429E+01 2.7841E-04
 3.9714E+01 2.7423E-04
 4.0000E+01 2.7008E-04
 4.0286E+01 2.6596E-04
 4.0571E+01 2.6188E-04
 4.0857E+01 2.5784E-04
 4.1143E+01 2.5383E-04
 4.1429E+01 2.4986E-04
 4.1714E+01 2.4592E-04
 4.2000E+01 2.4202E-04
 4.2286E+01 2.3815E-04
 4.2571E+01 2.3432E-04
 4.2857E+01 2.3052E-04
 4.3143E+01 2.2677E-04
 4.3429E+01 2.2305E-04
 4.3714E+01 2.1936E-04
 4.4000E+01 2.1572E-04
 4.4286E+01 2.1211E-04
 4.4571E+01 2.0854E-04
 4.4857E+01 2.0500E-04
 4.5143E+01 2.0151E-04
 4.5429E+01 1.9805E-04
 4.5714E+01 1.9463E-04
 4.6000E+01 1.9124E-04
 4.6286E+01 1.8790E-04
 4.6571E+01 1.8459E-04
 4.6857E+01 1.8133E-04
 4.7143E+01 1.7810E-04
 4.7429E+01 1.7491E-04
 4.7714E+01 1.7175E-04
 4.8000E+01 1.6864E-04
 4.8286E+01 1.6557E-04
 4.8571E+01 1.6253E-04
 4.8857E+01 1.5953E-04
 4.9143E+01 1.5657E-04
 4.9429E+01 1.5365E-04
 4.9714E+01 1.5076E-04
 5.0000E+01 1.4792E-04
 5.0286E+01 1.4511E-04
 5.0571E+01 1.4234E-04
 5.0857E+01 1.3961E-04
 5.1143E+01 1.3691E-04
 5.1429E+01 1.3425E-04
 5.1714E+01 1.3163E-04
 5.2000E+01 1.2905E-04
 5.2286E+01 1.2650E-04
 5.2571E+01 1.2399E-04
 5.2857E+01 1.2152E-04
 5.3143E+01 1.1908E-04
 5.3429E+01 1.1668E-04
 5.3714E+01 1.1431E-04
 5.4000E+01 1.1199E-04
 5.4286E+01 1.0969E-04
 5.4571E+01 1.0743E-04
 5.4857E+01 1.0521E-04
 5.5143E+01 1.0302E-04
 5.5429E+01 1.0087E-04
 5.5714E+01 9.8746E-05
 5.6000E+01 9.6660E-05
 5.6286E+01 9.4609E-05
 5.6571E+01 9.2589E-05
 5.6857E+01 9.0604E-05
 5.7143E+01 8.8650E-05
 5.7429E+01 8.6731E-05
 5.7714E+01 8.4842E-05
 5.8000E+01 8.2985E-05
 5.8286E+01 8.1161E-05
 5.8571E+01 7.9368E-05
 5.8857E+01 7.7607E-05
 5.9143E+01 7.5876E-05
 5.9429E+01 7.4176E-05
 5.9714E+01 7.2507E-05
 6.0000E+01 7.0868E-05
 6.0286E+01 6.9257E-05
 6.0571E+01 6.7676E-05
 6.0857E+01 6.6124E-05
 6.1143E+01 6.4599E-05
 6.1429E+01 6.3103E-05
 6.1714E+01 6.1636E-05
 6.2000E+01 6.0195E-05
 6.2286E+01 5.8782E-05
 6.2571E+01 5.7396E-05
 6.2857E+01 5.6036E-05
 6.3143E+01 5.4702E-05
 6.3429E+01 5.3394E-05
 6.3714E+01 5.2112E-05
 6.4000E+01 5.0856E-05
 6.4286E+01 4.9624E-05
 6.4571E+01 4.8417E-05
 6.4857E+01 4.7234E-05
 6.5143E+01 4.6075E-05
 6.5429E+01 4.4940E-05
 6.5714E+01 4.3827E-05
 6.6000E+01 4.2737E-05
 6.6286E+01 4.1670E-05
 6.6571E+01 4.0625E-05
 6.6857E+01 3.9602E-05
 6.7143E+01 3.8601E-05
 6.7429E+01 3.7621E-05
 6.7714E+01 3.6662E-05
 6.8000E+01 3.5723E-05
 6.8286E+01 3.4805E-05
 6.8571E+01 3.3906E-05
 6.8857E+01 3.3027E-05
 6.9143E+01 3.2166E-05
 6.9429E+01 3.1325E-05
 6.9714E+01 3.0503E-05
 7.0000E+01 2.9699E-05
 7.0286E+01 2.8914E-05
 7.0571E+01 2.8145E-05
 7.0857E+01 2.7394E-05
 7.1143E+01 2.6661E-05
 7.1429E+01 2.5944E-05
 7.1714E+01 2.5244E-05
 7.2000E+01 2.4560E-05
 7.2286E+01 2.3893E-05
 7.2571E+01 2.3240E-05
 7.2857E+01 2.2603E-05
 7.3143E+01 2.1981E-05
 7.3429E+01 2.1374E-05
 7.3714E+01 2.0781E-05
 7.4000E+01 2.0202E-05
 7.4286E+01 1.9637E-05
 7.4571E+01 1.9086E-05
 7.4857E+01 1.8548E-05
 7.5143E+01 1.8024E-05
 7.5429E+01 1.7513E-05
 7.5714E+01 1.7015E-05
 7.6000E+01 1.6529E-05
 7.6286E+01 1.6055E-05
 7.6571E+01 1.5592E-05
 7.6857E+01 1.5141E-05
 7.7143E+01 1.4702E-05
 7.7429E+01 1.4274E-05
 7.7714E+01 1.3857E-05
 7.8000E+01 1.3450E-05
 7.8286E+01 1.3054E-05
 7.8571E+01 1.2669E-05
 7.8857E+01 1.2293E-05
 7.9143E+01 1.1927E-05
 7.9429E+01 1.1572E-05
 7.9714E+01 1.1225E-05
 8.0000E+01 1.0887E-05
 8.0286E+01 1.0559E-05
 8.0571E+01 1.0239E-05
 8.0857E+01 9.9281E-06
 8.1143E+01 9.6257E-06
 8.1429E+01 9.3307E-06
 8.1714E+01 9.0445E-06
 8.2000E+01 8.7656E-06
 8.2286E+01 8.4946E-06
 8.2571E+01 8.2307E-06
 8.2857E+01 7.9747E-06
 8.3143E+01 7.7256E-06
 8.3429E+01 7.4836E-06
 8.3714E+01 7.2483E-06
 8.4000E+01 7.0193E-06
 8.4286E+01 6.7973E-06
 8.4571E+01 6.5813E-06
 8.4857E+01 6.3717E-06
 8.5143E+01 6.1679E-06
 8.5429E+01 5.9699E-06
 8.5714E+01 5.7778E-06
 8.6000E+01 5.5912E-06
 8.6286E+01 5.4102E-06
 8.6571E+01 5.2342E-06
 8.6857E+01 5.0635E-06
 8.7143E+01 4.8979E-06
 8.7429E+01 4.7372E-06
 8.7714E+01 4.5812E-06
 8.8000E+01 4.4299E-06
 8.8286E+01 4.2832E-06
 8.8571E+01 4.1410E-06
 8.8857E+01 4.0028E-06
 8.9143E+01 3.8691E-06
 8.9429E+01 3.7390E-06
 8.9714E+01 3.6132E-06
 9.0000E+01 3.4911E-06
 9.0286E+01 3.3727E-06
 9.0571E+01 3.2580E-06
 9.0857E+01 3.1471E-06
 9.1143E+01 3.0396E-06
 9.1429E+01 2.9354E-06
 9.1714E+01 2.8346E-06
 9.2000E+01 2.7367E-06
 9.2286E+01 2.6422E-06
 9.2571E+01 2.5503E-06
 9.2857E+01 2.4617E-06
 9.3143E+01 2.3756E-06
 9.3429E+01 2.2923E-06
 9.3714E+01 2.2117E-06
 9.4000E+01 2.1338E-06
 9.4286E+01 2.0584E-06
 9.4571E+01 1.9854E-06
 9.4857E+01 1.9149E-06
 9.5143E+01 1.8465E-06
 9.5429E+01 1.7805E-06
 9.5714E+01 1.7166E-06
 9.6000E+01 1.6549E-06
 9.6286E+01 1.5952E-06
 9.6571E+01 1.5376E-06
 9.6857E+01 1.4818E-06
 9.7143E+01 1.4279E-06
 9.7429E+01 1.3758E-06
 9.7714E+01 1.3254E-06
 9.8000E+01 1.2768E-06
 9.8286E+01 1.2298E-06
 9.8571E+01 1.1843E-06
 9.8857E+01 1.1404E-06
 9.9143E+01 1.0980E-06
 9.9429E+01 1.0572E-06
 9.9714E+01 1.0176E-06
 1.0000E+02 9.7951E-07
 1.0029E+02 9.4271E-07
 1.0057E+02 9.0719E-07
 1.0086E+02 8.7290E-07
 1.0114E+02 8.3982E-07
 1.0143E+02 8.0789E-07
 1.0171E+02 7.7715E-07
 1.0200E+02 7.4742E-07
 1.0229E+02 7.1884E-07
 1.0257E+02 6.9123E-07
 1.0286E+02 6.6464E-07
 1.0314E+02 6.3901E-07
 1.0343E+02 6.1429E-07
 1.0371E+02 5.9042E-07
 1.0400E+02 5.6742E-07
 1.0429E+02 5.4525E-07
 1.0457E+02 5.2385E-07
 1.0486E+02 5.0330E-07
 1.0514E+02 4.8344E-07
 1.0543E+02 4.6440E-07
 1.0571E+02 4.4596E-07
 1.0600E+02 4.2825E-07
 1.0629E+02 4.1122E-07
 1.0657E+02 3.9480E-07
 1.0686E+02 3.7902E-07
 1.0714E+02 3.6384E-07
 1.0743E+02 3.4925E-07
 1.0771E+02 3.3522E-07
 1.0800E+02 3.2173E-07
 1.0829E+02 3.0869E-07
 1.0857E+02 2.9618E-07
 1.0886E+02 2.8414E-07
 1.0914E+02 2.7254E-07
 1.0943E+02 2.6140E-07
 1.0971E+02 2.5065E-07
 1.1000E+02 2.4034E-07
 1.1029E+02 2.3042E-07
 1.1057E+02 2.2086E-07
 1.1086E+02 2.1172E-07
 1.1114E+02 2.0290E-07
 1.1143E+02 1.9445E-07
 1.1171E+02 1.8634E-07
 1.1200E+02 1.7855E-07
 1.1229E+02 1.7106E-07
 1.1257E+02 1.6386E-07
 1.1286E+02 1.5698E-07
 1.1314E+02 1.5033E-07
 1.1343E+02 1.4398E-07
 1.1371E+02 1.3786E-07
 1.1400E+02 1.3198E-07
 1.1429E+02 1.2634E-07
 1.1457E+02 1.2092E-07
 1.1486E+02 1.1574E-07
 1.1514E+02 1.1075E-07
 1.1543E+02 1.0598E-07
 1.1571E+02 1.0138E-07
 1.1600E+02 9.6981E-08
 1.1629E+02 9.2778E-08
 1.1657E+02 8.8716E-08
 1.1686E+02 8.4857E-08
 1.1714E+02 8.1131E-08
 1.1743E+02 7.7577E-08
 1.1771E+02 7.4169E-08
 1.1800E+02 7.0899E-08
 1.1829E+02 6.7771E-08
 1.1857E+02 6.4782E-08
 1.1886E+02 6.1912E-08
 1.1914E+02 5.9164E-08
 1.1943E+02 5.6516E-08
 1.1971E+02 5.3980E-08
 1.2000E+02 5.1552E-08
 1.2029E+02 4.9231E-08
 1.2057E+02 4.7022E-08
 1.2086E+02 4.4901E-08
 1.2114E+02 4.2878E-08
 1.2143E+02 4.0933E-08
 1.2171E+02 3.9083E-08
 1.2200E+02 3.7304E-08
 1.2229E+02 3.5596E-08
 1.2257E+02 3.3974E-08
 1.2286E+02 3.2429E-08
 1.2314E+02 3.0938E-08
 1.2343E+02 2.9528E-08
 1.2371E+02 2.8168E-08
 1.2400E+02 2.6879E-08
 1.2429E+02 2.5633E-08
 1.2457E+02 2.4436E-08
 1.2486E+02 2.3299E-08
 1.2514E+02 2.2204E-08
 1.2543E+02 2.1166E-08
 1.2571E+02 2.0166E-08
 1.2600E+02 1.9228E-08
 1.2629E+02 1.8318E-08
 1.2657E+02 1.7452E-08
 1.2686E+02 1.6625E-08
 1.2714E+02 1.5836E-08
 1.2743E+02 1.5083E-08
 1.2771E+02 1.4365E-08
 1.2800E+02 1.3687E-08
 1.2829E+02 1.3039E-08
 1.2857E+02 1.2413E-08
 1.2886E+02 1.1820E-08
 1.2914E+02 1.1246E-08
 1.2943E+02 1.0699E-08
 1.2971E+02 1.0177E-08
 1.3000E+02 9.6762E-09
 1.3029E+02 9.2046E-09
 1.3057E+02 8.7506E-09
 1.3086E+02 8.3249E-09
 1.3114E+02 7.9187E-09
 1.3143E+02 7.5379E-09
 1.3171E+02 7.1633E-09
 1.3200E+02 6.8137E-09
 1.3229E+02 6.4796E-09
 1.3257E+02 6.1617E-09
 1.3286E+02 5.8571E-09
 1.3314E+02 5.5638E-09
 1.3343E+02 5.2899E-09
 1.3371E+02 5.0224E-09
 1.3400E+02 4.7742E-09
 1.3429E+02 4.5363E-09
 1.3457E+02 4.3090E-09
 1.3486E+02 4.0914E-09
 1.3514E+02 3.8854E-09
 1.3543E+02 3.6913E-09
 1.3571E+02 3.5025E-09
 1.3600E+02 3.3237E-09
 1.3629E+02 3.1597E-09
 1.3657E+02 2.9977E-09
 1.3686E+02 2.8511E-09
 1.3714E+02 2.7053E-09
 1.3743E+02 2.5670E-09
 1.3771E+02 2.4366E-09
 1.3800E+02 2.3101E-09
 1.3829E+02 2.1885E-09
 1.3857E+02 2.0745E-09
 1.3886E+02 1.9695E-09
 1.3914E+02 1.8649E-09
 1.3943E+02 1.7713E-09
 1.3971E+02 1.6787E-09
 1.4000E+02 1.5938E-09
 1.4029E+02 1.5101E-09
 1.4057E+02 1.4312E-09
 1.4086E+02 1.3556E-09
 1.4114E+02 1.2834E-09
 1.4143E+02 1.2156E-09
 1.4171E+02 1.1513E-09
 1.4200E+02 1.0897E-09
 1.4229E+02 1.0317E-09
 1.4257E+02 9.7811E-10
 1.4286E+02 9.2596E-10
 1.4314E+02 8.7731E-10
 1.4343E+02 8.3015E-10
 1.4371E+02 7.8544E-10
 1.4400E+02 7.4294E-10
 1.4429E+02 7.0229E-10
 1.4457E+02 6.6399E-10
 1.4486E+02 6.2919E-10
 1.4514E+02 5.9550E-10
 1.4543E+02 5.6390E-10
 1.4571E+02 5.3324E-10
 1.4600E+02 5.0472E-10
 1.4629E+02 4.7721E-10
 1.4657E+02 4.5073E-10
 1.4686E+02 4.2604E-10
 1.4714E+02 4.0311E-10
 1.4743E+02 3.8125E-10
 1.4771E+02 3.6144E-10
 1.4800E+02 3.4111E-10
 1.4829E+02 3.2374E-10
 1.4857E+02 3.0578E-10
 1.4886E+02 2.8799E-10
 1.4914E+02 2.7203E-10
 1.4943E+02 2.5614E-10
 1.4971E+02 2.4223E-10
 1.5000E+02 2.2784E-10
 1.5029E+02 2.1663E-10
 1.5057E+02 2.0372E-10
 1.5086E+02 1.9261E-10
 1.5114E+02 1.8122E-10
 1.5143E+02 1.7029E-10
 1.5171E+02 1.6098E-10
 1.5200E+02 1.5117E-10
 1.5229E+02 1.4350E-10
 1.5257E+02 1.3577E-10
 1.5286E+02 1.2782E-10
 1.5314E+02 1.2080E-10
 1.5343E+02 1.1404E-10
 1.5371E+02 1.0692E-10
 1.5400E+02 1.0098E-10
 1.5429E+02 9.4626E-11
 1.5457E+02 8.9420E-11
 1.5486E+02 8.4397E-11
 1.5514E+02 7.9546E-11
 1.5543E+02 7.5080E-11
 1.5571E+02 7.0971E-11
 1.5600E+02 6.7109E-11
 1.5629E+02 6.2857E-11
 1.5657E+02 5.9417E-11
 1.5686E+02 5.5605E-11
 1.5714E+02 5.2689E-11
 1.5743E+02 4.9297E-11
 1.5771E+02 4.6440E-11
 1.5800E+02 4.4220E-11
 1.5829E+02 4.1409E-11
 1.5857E+02 3.9234E-11
 1.5886E+02 3.6634E-11
 1.5914E+02 3.4534E-11
 1.5943E+02 3.2717E-11
 1.5971E+02 3.0706E-11
 1.6000E+02 2.9088E-11
 1.6029E+02 2.7327E-11
 1.6057E+02 2.5501E-11
 1.6086E+02 2.4210E-11
 1.6114E+02 2.2386E-11
 1.6143E+02 2.1097E-11
 1.6171E+02 1.9880E-11
 1.6200E+02 1.8568E-11
 1.6229E+02 1.7588E-11
 1.6257E+02 1.6506E-11
 1.6286E+02 1.5729E-11
 1.6314E+02 1.4618E-11
 1.6343E+02 1.3881E-11
 1.6371E+02 1.2910E-11
 1.6400E+02 1.2116E-11
 1.6429E+02 1.1163E-11
 1.6457E+02 1.0470E-11
 1.6486E+02 9.9610E-12
 1.6514E+02 9.2236E-12
 1.6543E+02 8.8970E-12
 1.6571E+02 8.1564E-12
 1.6600E+02 7.7900E-12
 1.6629E+02 7.3487E-12
 1.6657E+02 6.9179E-12
 1.6686E+02 6.5951E-12
 1.6714E+02 6.0531E-12
 1.6743E+02 5.6822E-12
 1.6771E+02 5.2484E-12
 1.6800E+02 4.9888E-12
 1.6829E+02 4.6902E-12
 1.6857E+02 4.3100E-12
 1.6886E+02 3.9633E-12
 1.6914E+02 3.6624E-12
 1.6943E+02 3.4794E-12
 1.6971E+02 3.2826E-12
 1.7000E+02 3.0650E-12
 1.7029E+02 2.8995E-12
 1.7057E+02 2.7184E-12
 1.7086E+02 2.5309E-12
 1.7114E+02 2.3945E-12
 1.7143E+02 2.1814E-12
 1.7171E+02 2.0715E-12
 1.7200E+02 1.9754E-12
 1.7229E+02 1.8375E-12
 1.7257E+02 1.7245E-12
 1.7286E+02 1.6558E-12
 1.7314E+02 1.5049E-12
 1.7343E+02 1.4605E-12
 1.7371E+02 1.4178E-12
 1.7400E+02 1.2628E-12
 1.7429E+02 1.2251E-12
 1.7457E+02 1.1152E-12
 1.7486E+02 1.0810E-12
 1.7514E+02 9.7991E-13
 1.7543E+02 9.7919E-13
 1.7571E+02 9.5637E-13
 1.7600E+02 9.1618E-13
 1.7629E+02 8.6062E-13
 1.7657E+02 7.6840E-13
 1.7686E+02 7.3188E-13
 1.7714E+02 6.0797E-13
 1.7743E+02 5.4676E-13
 1.7771E+02 4.5683E-13
 1.7800E+02 4.3160E-13
 1.7829E+02 4.0079E-13
 1.7857E+02 4.0988E-13
 1.7886E+02 3.8138E-13
 1.7914E+02 3.5697E-13
 1.7943E+02 3.3592E-13
 1.7971E+02 2.9263E-13
 1.8000E+02 2.8816E-13
 1.8029E+02 2.5682E-13
 1.8057E+02 2.4480E-13
 1.8086E+02 2.2273E-13
 1.8114E+02 2.0931E-13
 1.8143E+02 1.8514E-13
 1.8171E+02 1.9348E-13
 1.8200E+02 1.7474E-13
 1.8229E+02 1.7363E-13
 1.8257E+02 1.5137E-13
 1.8286E+02 1.2762E-13
 1.8314E+02 1.3494E-13
 1.8343E+02 1.2824E-13
 1.8371E+02 1.3210E-13
 1.8400E+02 1.1448E-13
 1.8429E+02 1.1269E-13
 1.8457E+02 1.0408E-13
 1.8486E+02 1.0310E-13
 1.8514E+02 9.5814E-14
 1.8543E+02 8.7179E-14
 1.8571E+02 7.5982E-14
 1.8600E+02 7.3833E-14
 1.8629E+02 7.7094E-14
 1.8657E+02 5.9919E-14
 1.8686E+02 7.5679E-14
 1.8714E+02 6.0480E-14
 1.8743E+02 6.6422E-14
 1.8771E+02 5.1417E-14
 1.8800E+02 3.9411E-14
 1.8829E+02 3.9249E-14
 1.8857E+02 4.3524E-14
 1.8886E+02 5.1586E-14
 1.8914E+02 3.9858E-14
 1.8943E+02 4.9093E-14
 1.8971E+02 3.6521E-14
 1.9000E+02 3.6266E-14
 1.9029E+02 2.7763E-14
 1.9057E+02 2.8674E-14
 1.9086E+02 2.7604E-14
 1.9114E+02 2.6627E-14
 1.9143E+02 3.0409E-14
 1.9171E+02 2.3223E-14
 1.9200E+02 2.2994E-14
 1.9229E+02 1.7197E-14
 1.9257E+02 1.7557E-14
 1.9286E+02 9.8522E-15
 1.9314E+02 4.1392E-15
 1.9343E+02 5.7305E-15
 1.9371E+02 5.1839E-15
 1.9400E+02 6.9921E-15
 1.9429E+02 5.9471E-15
 1.9457E+02 4.9764E-15
 1.9486E+02 3.1799E-15
 1.9514E+02 1.7206E-15
 1.9543E+02 9.1913E-16
 1.9571E+02 8.4962E-17
 1.9600E+02 1.4848E-17
 1.9629E+02 6.0199E-17
 1.9657E+02 1.0361E-16
 1.9686E+02 6.1619E-17
 1.9714E+02 3.2053E-17
 1.9743E+02 1.7279E-17
 1.9771E+02 3.0626E-18
 1.9800E+02 2.7099E-20
 1.9829E+02 2.0038E-19
 1.9857E+02 2.3824E-19
 1.9886E+02 1.1344E-19
 1.9914E+02 3.7289E-20
 1.9943E+02 8.8961E-21
 1.9971E+02 2.6061E-21
 2.0000E+02 4.7342E-22
