 0.0000E+00 7.7154E-04
 2.8571E-01 7.7149E-04
 5.7143E-01 7.7134E-04
 8.5714E-01 7.7115E-04
 1.1429E+00 7.7084E-04
 1.4286E+00 7.7045E-04
 1.7143E+00 7.6998E-04
 2.0000E+00 7.6944E-04
 2.2857E+00 7.6881E-04
 2.5714E+00 7.6810E-04
 2.8571E+00 7.6732E-04
 3.1429E+00 7.6645E-04
 3.4286E+00 7.6551E-04
 3.7143E+00 7.6448E-04
 4.0000E+00 7.6337E-04
 4.2857E+00 7.6219E-04
 4.5714E+00 7.6094E-04
 4.8571E+00 7.5959E-04
 5.1429E+00 7.5818E-04
 5.4286E+00 7.5668E-04
 5.7143E+00 7.5510E-04
 6.0000E+00 7.5345E-04
 6.2857E+00 7.5171E-04
 6.5714E+00 7.4991E-04
 6.8571E+00 7.4802E-04
 7.1429E+00 7.4607E-04
 7.4286E+00 7.4404E-04
 7.7143E+00 7.4193E-04
 8.0000E+00 7.3976E-04
 8.2857E+00 7.3750E-04
 8.5714E+00 7.3518E-04
 8.8571E+00 7.3278E-04
 9.1429E+00 7.3032E-04
 9.4286E+00 7.2778E-04
 9.7143E+00 7.2517E-04
 1.0000E+01 7.2250E-04
 1.0286E+01 7.1976E-04
 1.0571E+01 7.1696E-04
 1.0857E+01 7.1409E-04
 1.1143E+01 7.1115E-04
 1.1429E+01 7.0814E-04
 1.1714E+01 7.0508E-04
 1.2000E+01 7.0195E-04
 1.2286E+01 6.9877E-04
 1.2571E+01 6.9552E-04
 1.2857E+01 6.9223E-04
 1.3143E+01 6.8886E-04
 1.3429E+01 6.8545E-04
 1.3714E+01 6.8197E-04
 1.4000E+01 6.7844E-04
 1.4286E+01 6.7486E-04
 1.4571E+01 6.7122E-04
 1.4857E+01 6.6754E-04
 1.5143E+01 6.6380E-04
 1.5429E+01 6.6001E-04
 1.5714E+01 6.5617E-04
 1.6000E+01 6.5229E-04
 1.6286E+01 6.4836E-04
 1.6571E+01 6.4439E-04
 1.6857E+01 6.4037E-04
 1.7143E+01 6.3630E-04
 1.7429E+01 6.3220E-04
 1.7714E+01 6.2805E-04
 1.8000E+01 6.2386E-04
 1.8286E+01 6.1964E-04
 1.8571E+01 6.1538E-04
 1.8857E+01 6.1108E-04
 1.9143E+01 6.0675E-04
 1.9429E+01 6.0238E-04
 1.9714E+01 5.9798E-04
 2.0000E+01 5.9356E-04
 2.0286E+01 5.8910E-04
 2.0571E+01 5.8461E-04
 2.0857E+01 5.8009E-04
 2.1143E+01 5.7555E-04
 2.1429E+01 5.7098E-04
 2.1714E+01 5.6639E-04
 2.2000E+01 5.6177E-04
 2.2286E+01 5.5714E-04
 2.2571E+01 5.5248E-04
 2.2857E+01 5.4780E-04
 2.3143E+01 5.4311E-04
 2.3429E+01 5.3839E-04
 2.3714E+01 5.3366E-04
 2.4000E+01 5.2892E-04
 2.4286E+01 5.2416E-04
 2.4571E+01 5.1939E-04
 2.4857E+01 5.1460E-04
 2.5143E+01 5.0981E-04
 2.5429E+01 5.0501E-04
 2.5714E+01 5.0020E-04
 2.6000E+01 4.9538E-04
 2.6286E+01 4.9055E-04
 2.6571E+01 4.8573E-04
 2.6857E+01 4.8089E-04
 2.7143E+01 4.7605E-04
 2.7429E+01 4.7121E-04
 2.7714E+01 4.6637E-04
 2.8000E+01 4.6154E-04
 2.8286E+01 4.5670E-04
 2.8571E+01 4.5187E-04
 2.8857E+01 4.4704E-04
 2.9143E+01 4.4221E-04
 2.9429E+01 4.3739E-04
 2.9714E+01 4.3257E-04
 3.0000E+01 4.2776E-04
 3.0286E+01 4.2296E-04
 3.0571E+01 4.1817E-04
 3.0857E+01 4.1339E-04
 3.1143E+01 4.0862E-04
 3.1429E+01 4.0386E-04
 3.1714E+01 3.9912E-04
 3.2000E+01 3.9439E-04
 3.2286E+01 3.8967E-04
 3.2571E+01 3.8496E-04
 3.2857E+01 3.8028E-04
 3.3143E+01 3.7561E-04
 3.3429E+01 3.7096E-04
 3.3714E+01 3.6632E-04
 3.4000E+01 3.6171E-04
 3.4286E+01 3.5712E-04
 3.4571E+01 3.5255E-04
 3.4857E+01 3.4799E-04
 3.5143E+01 3.4346E-04
 3.5429E+01 3.3895E-04
 3.5714E+01 3.3447E-04
 3.6000E+01 3.3001E-04
 3.6286E+01 3.2557E-04
 3.6571E+01 3.2116E-04
 3.6857E+01 3.1678E-04
 3.7143E+01 3.1242E-04
 3.7429E+01 3.0810E-04
 3.7714E+01 3.0379E-04
 3.8000E+01 2.9952E-04
 3.8286E+01 2.9527E-04
 3.8571E+01 2.9106E-04
 3.8857E+01 2.8687E-04
 3.9143E+01 2.8271E-04
 3.9429E+01 2.7858E-04
 3.9714E+01 2.7449E-04
 4.0000E+01 2.7042E-04
 4.0286E+01 2.6639E-04
 4.0571E+01 2.6239E-04
 4.0857E+01 2.5842E-04
 4.1143E+01 2.5448E-04
 4.1429E+01 2.5058E-04
 4.1714E+01 2.4671E-04
 4.2000E+01 2.4287E-04
 4.2286E+01 2.3907E-04
 4.2571E+01 2.3530E-04
 4.2857E+01 2.3157E-04
 4.3143E+01 2.2787E-04
 4.3429E+01 2.2421E-04
 4.3714E+01 2.2058E-04
 4.4000E+01 2.1699E-04
 4.4286E+01 2.1343E-04
 4.4571E+01 2.0991E-04
 4.4857E+01 2.0643E-04
 4.5143E+01 2.0298E-04
 4.5429E+01 1.9957E-04
 4.5714E+01 1.9619E-04
 4.6000E+01 1.9285E-04
 4.6286E+01 1.8955E-04
 4.6571E+01 1.8629E-04
 4.6857E+01 1.8306E-04
 4.7143E+01 1.7986E-04
 4.7429E+01 1.7671E-04
 4.7714E+01 1.7359E-04
 4.8000E+01 1.7051E-04
 4.8286E+01 1.6746E-04
 4.8571E+01 1.6446E-04
 4.8857E+01 1.6148E-04
 4.9143E+01 1.5855E-04
 4.9429E+01 1.5565E-04
 4.9714E+01 1.5279E-04
 5.0000E+01 1.4997E-04
 5.0286E+01 1.4718E-04
 5.0571E+01 1.4442E-04
 5.0857E+01 1.4171E-04
 5.1143E+01 1.3903E-04
 5.1429E+01 1.3638E-04
 5.1714E+01 1.3377E-04
 5.2000E+01 1.3120E-04
 5.2286E+01 1.2867E-04
 5.2571E+01 1.2617E-04
 5.2857E+01 1.2370E-04
 5.3143E+01 1.2127E-04
 5.3429E+01 1.1887E-04
 5.3714E+01 1.1651E-04
 5.4000E+01 1.1419E-04
 5.4286E+01 1.1190E-04
 5.4571E+01 1.0964E-04
 5.4857E+01 1.0742E-04
 5.5143E+01 1.0523E-04
 5.5429E+01 1.0308E-04
 5.5714E+01 1.0095E-04
 5.6000E+01 9.8864E-05
 5.6286E+01 9.6808E-05
 5.6571E+01 9.4784E-05
 5.6857E+01 9.2793E-05
 5.7143E+01 9.0834E-05
 5.7429E+01 8.8907E-05
 5.7714E+01 8.7012E-05
 5.8000E+01 8.5148E-05
 5.8286E+01 8.3315E-05
 5.8571E+01 8.1512E-05
 5.8857E+01 7.9740E-05
 5.9143E+01 7.7998E-05
 5.9429E+01 7.6286E-05
 5.9714E+01 7.4603E-05
 6.0000E+01 7.2951E-05
 6.0286E+01 7.1326E-05
 6.0571E+01 6.9732E-05
 6.0857E+01 6.8165E-05
 6.1143E+01 6.6626E-05
 6.1429E+01 6.5115E-05
 6.1714E+01 6.3631E-05
 6.2000E+01 6.2175E-05
 6.2286E+01 6.0745E-05
 6.2571E+01 5.9341E-05
 6.2857E+01 5.7964E-05
 6.3143E+01 5.6613E-05
 6.3429E+01 5.5288E-05
 6.3714E+01 5.3988E-05
 6.4000E+01 5.2712E-05
 6.4286E+01 5.1462E-05
 6.4571E+01 5.0236E-05
 6.4857E+01 4.9034E-05
 6.5143E+01 4.7855E-05
 6.5429E+01 4.6700E-05
 6.5714E+01 4.5568E-05
 6.6000E+01 4.4458E-05
 6.6286E+01 4.3371E-05
 6.6571E+01 4.2306E-05
 6.6857E+01 4.1263E-05
 6.7143E+01 4.0240E-05
 6.7429E+01 3.9240E-05
 6.7714E+01 3.8259E-05
 6.8000E+01 3.7300E-05
 6.8286E+01 3.6360E-05
 6.8571E+01 3.5440E-05
 6.8857E+01 3.4541E-05
 6.9143E+01 3.3659E-05
 6.9429E+01 3.2797E-05
 6.9714E+01 3.1954E-05
 7.0000E+01 3.1129E-05
 7.0286E+01 3.0322E-05
 7.0571E+01 2.9534E-05
 7.0857E+01 2.8762E-05
 7.1143E+01 2.8007E-05
 7.1429E+01 2.7270E-05
 7.1714E+01 2.6549E-05
 7.2000E+01 2.5844E-05
 7.2286E+01 2.5156E-05
 7.2571E+01 2.4483E-05
 7.2857E+01 2.3826E-05
 7.3143E+01 2.3184E-05
 7.3429E+01 2.2556E-05
 7.3714E+01 2.1943E-05
 7.4000E+01 2.1345E-05
 7.4286E+01 2.0761E-05
 7.4571E+01 2.0190E-05
 7.4857E+01 1.9633E-05
 7.5143E+01 1.9089E-05
 7.5429E+01 1.8558E-05
 7.5714E+01 1.8040E-05
 7.6000E+01 1.7535E-05
 7.6286E+01 1.7043E-05
 7.6571E+01 1.6562E-05
 7.6857E+01 1.6093E-05
 7.7143E+01 1.5636E-05
 7.7429E+01 1.5190E-05
 7.7714E+01 1.4755E-05
 7.8000E+01 1.4332E-05
 7.8286E+01 1.3918E-05
 7.8571E+01 1.3516E-05
 7.8857E+01 1.3123E-05
 7.9143E+01 1.2741E-05
 7.9429E+01 1.2368E-05
 7.9714E+01 1.2005E-05
 8.0000E+01 1.1651E-05
 8.0286E+01 1.1307E-05
 8.0571E+01 1.0972E-05
 8.0857E+01 1.0645E-05
 8.1143E+01 1.0327E-05
 8.1429E+01 1.0018E-05
 8.1714E+01 9.7161E-06
 8.2000E+01 9.4230E-06
 8.2286E+01 9.1375E-06
 8.2571E+01 8.8599E-06
 8.2857E+01 8.5897E-06
 8.3143E+01 8.3268E-06
 8.3429E+01 8.0710E-06
 8.3714E+01 7.8225E-06
 8.4000E+01 7.5806E-06
 8.4286E+01 7.3457E-06
 8.4571E+01 7.1172E-06
 8.4857E+01 6.8951E-06
 8.5143E+01 6.6793E-06
 8.5429E+01 6.4694E-06
 8.5714E+01 6.2655E-06
 8.6000E+01 6.0672E-06
 8.6286E+01 5.8747E-06
 8.6571E+01 5.6874E-06
 8.6857E+01 5.5057E-06
 8.7143E+01 5.3290E-06
 8.7429E+01 5.1577E-06
 8.7714E+01 4.9915E-06
 8.8000E+01 4.8300E-06
 8.8286E+01 4.6734E-06
 8.8571E+01 4.5211E-06
 8.8857E+01 4.3736E-06
 8.9143E+01 4.2302E-06
 8.9429E+01 4.0910E-06
 8.9714E+01 3.9561E-06
 9.0000E+01 3.8252E-06
 9.0286E+01 3.6983E-06
 9.0571E+01 3.5751E-06
 9.0857E+01 3.4558E-06
 9.1143E+01 3.3400E-06
 9.1429E+01 3.2277E-06
 9.1714E+01 3.1189E-06
 9.2000E+01 3.0135E-06
 9.2286E+01 2.9114E-06
 9.2571E+01 2.8124E-06
 9.2857E+01 2.7165E-06
 9.3143E+01 2.6237E-06
 9.3429E+01 2.5337E-06
 9.3714E+01 2.4466E-06
 9.4000E+01 2.3620E-06
 9.4286E+01 2.2803E-06
 9.4571E+01 2.2010E-06
 9.4857E+01 2.1243E-06
 9.5143E+01 2.0499E-06
 9.5429E+01 1.9782E-06
 9.5714E+01 1.9086E-06
 9.6000E+01 1.8414E-06
 9.6286E+01 1.7764E-06
 9.6571E+01 1.7134E-06
 9.6857E+01 1.6526E-06
 9.7143E+01 1.5936E-06
 9.7429E+01 1.5367E-06
 9.7714E+01 1.4815E-06
 9.8000E+01 1.4282E-06
 9.8286E+01 1.3767E-06
 9.8571E+01 1.3269E-06
 9.8857E+01 1.2788E-06
 9.9143E+01 1.2323E-06
 9.9429E+01 1.1872E-06
 9.9714E+01 1.1440E-06
 1.0000E+02 1.1019E-06
 1.0029E+02 1.0614E-06
 1.0057E+02 1.0223E-06
 1.0086E+02 9.8437E-07
 1.0114E+02 9.4788E-07
 1.0143E+02 9.1263E-07
 1.0171E+02 8.7868E-07
 1.0200E+02 8.4575E-07
 1.0229E+02 8.1406E-07
 1.0257E+02 7.8336E-07
 1.0286E+02 7.5375E-07
 1.0314E+02 7.2524E-07
 1.0343E+02 6.9774E-07
 1.0371E+02 6.7123E-07
 1.0400E+02 6.4562E-07
 1.0429E+02 6.2095E-07
 1.0457E+02 5.9710E-07
 1.0486E+02 5.7420E-07
 1.0514E+02 5.5204E-07
 1.0543E+02 5.3070E-07
 1.0571E+02 5.1015E-07
 1.0600E+02 4.9029E-07
 1.0629E+02 4.7120E-07
 1.0657E+02 4.5274E-07
 1.0686E+02 4.3497E-07
 1.0714E+02 4.1785E-07
 1.0743E+02 4.0141E-07
 1.0771E+02 3.8550E-07
 1.0800E+02 3.7029E-07
 1.0829E+02 3.5557E-07
 1.0857E+02 3.4142E-07
 1.0886E+02 3.2783E-07
 1.0914E+02 3.1474E-07
 1.0943E+02 3.0221E-07
 1.0971E+02 2.9006E-07
 1.1000E+02 2.7836E-07
 1.1029E+02 2.6709E-07
 1.1057E+02 2.5627E-07
 1.1086E+02 2.4583E-07
 1.1114E+02 2.3581E-07
 1.1143E+02 2.2619E-07
 1.1171E+02 2.1692E-07
 1.1200E+02 2.0802E-07
 1.1229E+02 1.9950E-07
 1.1257E+02 1.9126E-07
 1.1286E+02 1.8337E-07
 1.1314E+02 1.7579E-07
 1.1343E+02 1.6848E-07
 1.1371E+02 1.6146E-07
 1.1400E+02 1.5473E-07
 1.1429E+02 1.4827E-07
 1.1457E+02 1.4206E-07
 1.1486E+02 1.3610E-07
 1.1514E+02 1.3038E-07
 1.1543E+02 1.2490E-07
 1.1571E+02 1.1959E-07
 1.1600E+02 1.1451E-07
 1.1629E+02 1.0963E-07
 1.1657E+02 1.0494E-07
 1.1686E+02 1.0049E-07
 1.1714E+02 9.6159E-08
 1.1743E+02 9.2033E-08
 1.1771E+02 8.8065E-08
 1.1800E+02 8.4257E-08
 1.1829E+02 8.0615E-08
 1.1857E+02 7.7095E-08
 1.1886E+02 7.3731E-08
 1.1914E+02 7.0503E-08
 1.1943E+02 6.7429E-08
 1.1971E+02 6.4476E-08
 1.2000E+02 6.1647E-08
 1.2029E+02 5.8942E-08
 1.2057E+02 5.6354E-08
 1.2086E+02 5.3874E-08
 1.2114E+02 5.1503E-08
 1.2143E+02 4.9215E-08
 1.2171E+02 4.7013E-08
 1.2200E+02 4.4919E-08
 1.2229E+02 4.2901E-08
 1.2257E+02 4.0978E-08
 1.2286E+02 3.9133E-08
 1.2314E+02 3.7367E-08
 1.2343E+02 3.5680E-08
 1.2371E+02 3.4056E-08
 1.2400E+02 3.2510E-08
 1.2429E+02 3.1040E-08
 1.2457E+02 2.9620E-08
 1.2486E+02 2.8286E-08
 1.2514E+02 2.6993E-08
 1.2543E+02 2.5759E-08
 1.2571E+02 2.4580E-08
 1.2600E+02 2.3454E-08
 1.2629E+02 2.2384E-08
 1.2657E+02 2.1346E-08
 1.2686E+02 2.0367E-08
 1.2714E+02 1.9413E-08
 1.2743E+02 1.8509E-08
 1.2771E+02 1.7637E-08
 1.2800E+02 1.6817E-08
 1.2829E+02 1.6028E-08
 1.2857E+02 1.5274E-08
 1.2886E+02 1.4558E-08
 1.2914E+02 1.3869E-08
 1.2943E+02 1.3222E-08
 1.2971E+02 1.2595E-08
 1.3000E+02 1.2001E-08
 1.3029E+02 1.1435E-08
 1.3057E+02 1.0884E-08
 1.3086E+02 1.0368E-08
 1.3114E+02 9.8746E-09
 1.3143E+02 9.3988E-09
 1.3171E+02 8.9509E-09
 1.3200E+02 8.5158E-09
 1.3229E+02 8.1052E-09
 1.3257E+02 7.7054E-09
 1.3286E+02 7.3294E-09
 1.3314E+02 6.9711E-09
 1.3343E+02 6.6314E-09
 1.3371E+02 6.3038E-09
 1.3400E+02 5.9927E-09
 1.3429E+02 5.7007E-09
 1.3457E+02 5.4173E-09
 1.3486E+02 5.1516E-09
 1.3514E+02 4.8948E-09
 1.3543E+02 4.6563E-09
 1.3571E+02 4.4285E-09
 1.3600E+02 4.2094E-09
 1.3629E+02 4.0007E-09
 1.3657E+02 3.8046E-09
 1.3686E+02 3.6123E-09
 1.3714E+02 3.4338E-09
 1.3743E+02 3.2604E-09
 1.3771E+02 3.0951E-09
 1.3800E+02 2.9391E-09
 1.3829E+02 2.7889E-09
 1.3857E+02 2.6484E-09
 1.3886E+02 2.5130E-09
 1.3914E+02 2.3860E-09
 1.3943E+02 2.2669E-09
 1.3971E+02 2.1514E-09
 1.4000E+02 2.0425E-09
 1.4029E+02 1.9403E-09
 1.4057E+02 1.8397E-09
 1.4086E+02 1.7477E-09
 1.4114E+02 1.6554E-09
 1.4143E+02 1.5746E-09
 1.4171E+02 1.4929E-09
 1.4200E+02 1.4163E-09
 1.4229E+02 1.3438E-09
 1.4257E+02 1.2725E-09
 1.4286E+02 1.2070E-09
 1.4314E+02 1.1422E-09
 1.4343E+02 1.0817E-09
 1.4371E+02 1.0229E-09
 1.4400E+02 9.7005E-10
 1.4429E+02 9.1889E-10
 1.4457E+02 8.7046E-10
 1.4486E+02 8.2587E-10
 1.4514E+02 7.8328E-10
 1.4543E+02 7.4213E-10
 1.4571E+02 7.0456E-10
 1.4600E+02 6.6584E-10
 1.4629E+02 6.3038E-10
 1.4657E+02 5.9555E-10
 1.4686E+02 5.6405E-10
 1.4714E+02 5.3339E-10
 1.4743E+02 5.0505E-10
 1.4771E+02 4.7724E-10
 1.4800E+02 4.5019E-10
 1.4829E+02 4.2592E-10
 1.4857E+02 4.0100E-10
 1.4886E+02 3.8027E-10
 1.4914E+02 3.5943E-10
 1.4943E+02 3.4135E-10
 1.4971E+02 3.2301E-10
 1.5000E+02 3.0628E-10
 1.5029E+02 2.9008E-10
 1.5057E+02 2.7403E-10
 1.5086E+02 2.5888E-10
 1.5114E+02 2.4378E-10
 1.5143E+02 2.3092E-10
 1.5171E+02 2.1757E-10
 1.5200E+02 2.0552E-10
 1.5229E+02 1.9464E-10
 1.5257E+02 1.8364E-10
 1.5286E+02 1.7429E-10
 1.5314E+02 1.6413E-10
 1.5343E+02 1.5468E-10
 1.5371E+02 1.4584E-10
 1.5400E+02 1.3750E-10
 1.5429E+02 1.3009E-10
 1.5457E+02 1.2279E-10
 1.5486E+02 1.1628E-10
 1.5514E+02 1.0978E-10
 1.5543E+02 1.0354E-10
 1.5571E+02 9.7523E-11
 1.5600E+02 9.2026E-11
 1.5629E+02 8.6250E-11
 1.5657E+02 8.1491E-11
 1.5686E+02 7.6721E-11
 1.5714E+02 7.2434E-11
 1.5743E+02 6.8075E-11
 1.5771E+02 6.4171E-11
 1.5800E+02 6.0685E-11
 1.5829E+02 5.7223E-11
 1.5857E+02 5.3924E-11
 1.5886E+02 5.0476E-11
 1.5914E+02 4.7749E-11
 1.5943E+02 4.4666E-11
 1.5971E+02 4.1967E-11
 1.6000E+02 3.9318E-11
 1.6029E+02 3.7456E-11
 1.6057E+02 3.5212E-11
 1.6086E+02 3.3353E-11
 1.6114E+02 3.1840E-11
 1.6143E+02 2.9893E-11
 1.6171E+02 2.8418E-11
 1.6200E+02 2.6449E-11
 1.6229E+02 2.5012E-11
 1.6257E+02 2.3335E-11
 1.6286E+02 2.1875E-11
 1.6314E+02 2.0598E-11
 1.6343E+02 1.9513E-11
 1.6371E+02 1.8477E-11
 1.6400E+02 1.7211E-11
 1.6429E+02 1.6346E-11
 1.6457E+02 1.5100E-11
 1.6486E+02 1.4331E-11
 1.6514E+02 1.3424E-11
 1.6543E+02 1.2595E-11
 1.6571E+02 1.2013E-11
 1.6600E+02 1.1180E-11
 1.6629E+02 1.0553E-11
 1.6657E+02 1.0171E-11
 1.6686E+02 9.4449E-12
 1.6714E+02 8.7810E-12
 1.6743E+02 8.2583E-12
 1.6771E+02 7.6937E-12
 1.6800E+02 7.1850E-12
 1.6829E+02 6.5795E-12
 1.6857E+02 6.2807E-12
 1.6886E+02 5.7381E-12
 1.6914E+02 5.5054E-12
 1.6943E+02 5.2042E-12
 1.6971E+02 4.8834E-12
 1.7000E+02 4.6113E-12
 1.7029E+02 4.2773E-12
 1.7057E+02 4.0735E-12
 1.7086E+02 3.7713E-12
 1.7114E+02 3.5815E-12
 1.7143E+02 3.3341E-12
 1.7171E+02 3.1680E-12
 1.7200E+02 3.0564E-12
 1.7229E+02 2.8588E-12
 1.7257E+02 2.6051E-12
 1.7286E+02 2.4740E-12
 1.7314E+02 2.2391E-12
 1.7343E+02 2.1000E-12
 1.7371E+02 1.9104E-12
 1.7400E+02 1.8396E-12
 1.7429E+02 1.7667E-12
 1.7457E+02 1.5902E-12
 1.7486E+02 1.5507E-12
 1.7514E+02 1.3708E-12
 1.7543E+02 1.3033E-12
 1.7571E+02 1.1926E-12
 1.7600E+02 1.0941E-12
 1.7629E+02 1.0477E-12
 1.7657E+02 9.9963E-13
 1.7686E+02 1.0008E-12
 1.7714E+02 9.3106E-13
 1.7743E+02 9.1998E-13
 1.7771E+02 8.0777E-13
 1.7800E+02 7.4003E-13
 1.7829E+02 7.0655E-13
 1.7857E+02 5.7249E-13
 1.7886E+02 6.1509E-13
 1.7914E+02 5.5034E-13
 1.7943E+02 5.4706E-13
 1.7971E+02 5.3289E-13
 1.8000E+02 4.7680E-13
 1.8029E+02 4.6926E-13
 1.8057E+02 4.4055E-13
 1.8086E+02 4.1018E-13
 1.8114E+02 3.8945E-13
 1.8143E+02 3.8070E-13
 1.8171E+02 3.3873E-13
 1.8200E+02 3.2513E-13
 1.8229E+02 2.6394E-13
 1.8257E+02 2.5403E-13
 1.8286E+02 2.2740E-13
 1.8314E+02 1.9929E-13
 1.8343E+02 1.7231E-13
 1.8371E+02 1.8105E-13
 1.8400E+02 1.5379E-13
 1.8429E+02 1.6236E-13
 1.8457E+02 1.4807E-13
 1.8486E+02 1.5405E-13
 1.8514E+02 1.4580E-13
 1.8543E+02 1.0689E-13
 1.8571E+02 1.2415E-13
 1.8600E+02 8.5017E-14
 1.8629E+02 9.5071E-14
 1.8657E+02 8.3883E-14
 1.8686E+02 8.8923E-14
 1.8714E+02 8.4161E-14
 1.8743E+02 8.3422E-14
 1.8771E+02 7.9407E-14
 1.8800E+02 7.8252E-14
 1.8829E+02 7.4471E-14
 1.8857E+02 6.9306E-14
 1.8886E+02 8.1490E-14
 1.8914E+02 6.9810E-14
 1.8943E+02 7.3785E-14
 1.8971E+02 6.0446E-14
 1.9000E+02 6.0476E-14
 1.9029E+02 5.8305E-14
 1.9057E+02 4.9447E-14
 1.9086E+02 4.6167E-14
 1.9114E+02 4.0059E-14
 1.9143E+02 3.8848E-14
 1.9171E+02 2.9924E-14
 1.9200E+02 2.6542E-14
 1.9229E+02 2.8082E-14
 1.9257E+02 2.6355E-14
 1.9286E+02 1.6876E-14
 1.9314E+02 1.6457E-14
 1.9343E+02 1.5127E-14
 1.9371E+02 1.6542E-14
 1.9400E+02 1.3212E-14
 1.9429E+02 1.1209E-14
 1.9457E+02 8.6518E-15
 1.9486E+02 4.0181E-15
 1.9514E+02 4.3997E-15
 1.9543E+02 7.6008E-16
 1.9571E+02 1.5986E-16
 1.9600E+02 6.0706E-17
 1.9629E+02 7.5479E-18
 1.9657E+02 2.5806E-16
 1.9686E+02 4.0105E-16
 1.9714E+02 1.2004E-16
 1.9743E+02 9.9768E-17
 1.9771E+02 4.9672E-17
 1.9800E+02 1.0938E-17
 1.9829E+02 2.8173E-18
 1.9857E+02 1.5785E-18
 1.9886E+02 6.9900E-19
 1.9914E+02 1.7591E-19
 1.9943E+02 3.6087E-20
 1.9971E+02 3.7822E-21
 2.0000E+02 1.8543E-21
