-1.6616E+02 9.8597E-01
-1.6533E+02 9.8588E-01
-1.6449E+02 9.8593E-01
-1.6366E+02 9.8593E-01
-1.6282E+02 9.8600E-01
-1.6199E+02 9.8604E-01
-1.6116E+02 9.8607E-01
-1.6032E+02 9.8607E-01
-1.5949E+02 9.8606E-01
-1.5866E+02 9.8617E-01
-1.5782E+02 9.8610E-01
-1.5699E+02 9.8614E-01
-1.5615E+02 9.8615E-01
-1.5532E+02 9.8619E-01
-1.5449E+02 9.8615E-01
-1.5365E+02 9.8621E-01
-1.5282E+02 9.8624E-01
-1.5198E+02 9.8623E-01
-1.5115E+02 9.8626E-01
-1.5032E+02 9.8630E-01
-1.4948E+02 9.8635E-01
-1.4865E+02 9.8632E-01
-1.4781E+02 9.8632E-01
-1.4698E+02 9.8639E-01
-1.4615E+02 9.8641E-01
-1.4531E+02 9.8639E-01
-1.4448E+02 9.8648E-01
-1.4365E+02 9.8645E-01
-1.4281E+02 9.8651E-01
-1.4198E+02 9.8648E-01
-1.4114E+02 9.8646E-01
-1.4031E+02 9.8651E-01
-1.3948E+02 9.8656E-01
-1.3864E+02 9.8659E-01
-1.3781E+02 9.8658E-01
-1.3697E+02 9.8660E-01
-1.3614E+02 9.8670E-01
-1.3531E+02 9.8666E-01
-1.3447E+02 9.8667E-01
-1.3364E+02 9.8669E-01
-1.3280E+02 9.8672E-01
-1.3197E+02 9.8673E-01
-1.3114E+02 9.8677E-01
-1.3030E+02 9.8678E-01
-1.2947E+02 9.8686E-01
-1.2864E+02 9.8684E-01
-1.2780E+02 9.8687E-01
-1.2697E+02 9.8686E-01
-1.2613E+02 9.8691E-01
-1.2530E+02 9.8693E-01
-1.2447E+02 9.8692E-01
-1.2363E+02 9.8695E-01
-1.2280E+02 9.8696E-01
-1.2196E+02 9.8698E-01
-1.2113E+02 9.8704E-01
-1.2030E+02 9.8706E-01
-1.1946E+02 9.8703E-01
-1.1863E+02 9.8705E-01
-1.1779E+02 9.8709E-01
-1.1696E+02 9.8709E-01
-1.1613E+02 9.8710E-01
-1.1529E+02 9.8711E-01
-1.1446E+02 9.8717E-01
-1.1363E+02 9.8721E-01
-1.1279E+02 9.8719E-01
-1.1196E+02 9.8726E-01
-1.1112E+02 9.8728E-01
-1.1029E+02 9.8727E-01
-1.0946E+02 9.8731E-01
-1.0862E+02 9.8732E-01
-1.0779E+02 9.8732E-01
-1.0695E+02 9.8735E-01
-1.0612E+02 9.8735E-01
-1.0529E+02 9.8736E-01
-1.0445E+02 9.8740E-01
-1.0362E+02 9.8748E-01
-1.0278E+02 9.8746E-01
-1.0195E+02 9.8748E-01
-1.0112E+02 9.8748E-01
-1.0028E+02 9.8756E-01
-9.9449E+01 9.8756E-01
-9.8615E+01 9.8761E-01
-9.7781E+01 9.8758E-01
-9.6947E+01 9.8760E-01
-9.6114E+01 9.8762E-01
-9.5280E+01 9.8770E-01
-9.4446E+01 9.8765E-01
-9.3612E+01 9.8767E-01
-9.2778E+01 9.8768E-01
-9.1944E+01 9.8771E-01
-9.1110E+01 9.8772E-01
-9.0276E+01 9.8773E-01
-8.9442E+01 9.8779E-01
-8.8608E+01 9.8777E-01
-8.7775E+01 9.8778E-01
-8.6941E+01 9.8783E-01
-8.6107E+01 9.8790E-01
-8.5273E+01 9.8786E-01
-8.4439E+01 9.8790E-01
-8.3605E+01 9.8789E-01
-8.2771E+01 9.8797E-01
-8.1937E+01 9.8794E-01
-8.1103E+01 9.8803E-01
-8.0270E+01 9.8802E-01
-7.9436E+01 9.8797E-01
-7.8602E+01 9.8803E-01
-7.7768E+01 9.8809E-01
-7.6934E+01 9.8809E-01
-7.6100E+01 9.8811E-01
-7.5266E+01 9.8815E-01
-7.4432E+01 9.8813E-01
-7.3598E+01 9.8816E-01
-7.2765E+01 9.8820E-01
-7.1931E+01 9.8825E-01
-7.1097E+01 9.8825E-01
-7.0263E+01 9.8829E-01
-6.9429E+01 9.8828E-01
-6.8595E+01 9.8831E-01
-6.7761E+01 9.8837E-01
-6.6927E+01 9.8835E-01
-6.6093E+01 9.8835E-01
-6.5260E+01 9.8842E-01
-6.4426E+01 9.8835E-01
-6.3592E+01 9.8841E-01
-6.2758E+01 9.8849E-01
-6.1924E+01 9.8845E-01
-6.1090E+01 9.8845E-01
-6.0256E+01 9.8846E-01
-5.9422E+01 9.8857E-01
-5.8588E+01 9.8851E-01
-5.7755E+01 9.8854E-01
-5.6921E+01 9.8859E-01
-5.6087E+01 9.8858E-01
-5.5253E+01 9.8862E-01
-5.4419E+01 9.8863E-01
-5.3585E+01 9.8864E-01
-5.2751E+01 9.8864E-01
-5.1917E+01 9.8867E-01
-5.1083E+01 9.8870E-01
-5.0250E+01 9.8879E-01
-4.9416E+01 9.8877E-01
-4.8582E+01 9.8873E-01
-4.7748E+01 9.8881E-01
-4.6914E+01 9.8883E-01
-4.6080E+01 9.8882E-01
-4.5246E+01 9.8886E-01
-4.4412E+01 9.8886E-01
-4.3578E+01 9.8888E-01
-4.2745E+01 9.8891E-01
-4.1911E+01 9.8895E-01
-4.1077E+01 9.8894E-01
-4.0243E+01 9.8894E-01
-3.9409E+01 9.8896E-01
-3.8575E+01 9.8898E-01
-3.7741E+01 9.8903E-01
-3.6907E+01 9.8901E-01
-3.6073E+01 9.8899E-01
-3.5240E+01 9.8914E-01
-3.4406E+01 9.8910E-01
-3.3572E+01 9.8912E-01
-3.2738E+01 9.8919E-01
-3.1904E+01 9.8919E-01
-3.1070E+01 9.8918E-01
-3.0236E+01 9.8921E-01
-2.9402E+01 9.8925E-01
-2.8568E+01 9.8923E-01
-2.7735E+01 9.8931E-01
-2.6901E+01 9.8932E-01
-2.6067E+01 9.8931E-01
-2.5233E+01 9.8937E-01
-2.4399E+01 9.8937E-01
-2.3565E+01 9.8939E-01
-2.2731E+01 9.8940E-01
-2.1897E+01 9.8939E-01
-2.1063E+01 9.8943E-01
-2.0230E+01 9.8943E-01
-1.9396E+01 9.8947E-01
-1.8562E+01 9.8950E-01
-1.7728E+01 9.8951E-01
-1.6894E+01 9.8956E-01
-1.6060E+01 9.8952E-01
-1.5226E+01 9.8957E-01
-1.4392E+01 9.8959E-01
-1.3558E+01 9.8963E-01
-1.2725E+01 9.8963E-01
-1.1891E+01 9.8963E-01
-1.1057E+01 9.8965E-01
-1.0223E+01 9.8970E-01
-9.3890E+00 9.8971E-01
-8.5551E+00 9.8978E-01
-7.7212E+00 9.8976E-01
-6.8873E+00 9.8976E-01
-6.0534E+00 9.8982E-01
-5.2196E+00 9.8981E-01
-4.3857E+00 9.8986E-01
-3.5518E+00 9.8989E-01
-2.7179E+00 9.8993E-01
-1.8840E+00 9.8992E-01
-1.0501E+00 9.8990E-01
-2.1622E-01 9.8992E-01
 6.1766E-01 9.8995E-01
 1.4516E+00 9.8999E-01
 2.2854E+00 9.9002E-01
 3.1193E+00 9.9007E-01
 3.9532E+00 9.9007E-01
 4.7871E+00 9.9005E-01
 5.6210E+00 9.9013E-01
 6.4549E+00 9.9008E-01
 7.2888E+00 9.9013E-01
 8.1227E+00 9.9019E-01
 8.9566E+00 9.9017E-01
 9.7904E+00 9.9019E-01
 1.0624E+01 9.9017E-01
 1.1458E+01 9.9020E-01
 1.2292E+01 9.9024E-01
 1.3126E+01 9.9025E-01
 1.3960E+01 9.9028E-01
 1.4794E+01 9.9032E-01
 1.5628E+01 9.9033E-01
 1.6462E+01 9.9034E-01
 1.7295E+01 9.9036E-01
 1.8129E+01 9.9039E-01
 1.8963E+01 9.9042E-01
 1.9797E+01 9.9038E-01
 2.0631E+01 9.9045E-01
 2.1465E+01 9.9044E-01
 2.2299E+01 9.9050E-01
 2.3133E+01 9.9052E-01
 2.3967E+01 9.9057E-01
 2.4800E+01 9.9056E-01
 2.5634E+01 9.9055E-01
 2.6468E+01 9.9058E-01
 2.7302E+01 9.9064E-01
 2.8136E+01 9.9063E-01
 2.8970E+01 9.9066E-01
 2.9804E+01 9.9064E-01
 3.0638E+01 9.9067E-01
 3.1472E+01 9.9071E-01
 3.2305E+01 9.9069E-01
 3.3139E+01 9.9071E-01
 3.3973E+01 9.9079E-01
 3.4807E+01 9.9080E-01
 3.5641E+01 9.9079E-01
 3.6475E+01 9.9078E-01
 3.7309E+01 9.9084E-01
 3.8143E+01 9.9085E-01
 3.8977E+01 9.9087E-01
 3.9810E+01 9.9095E-01
 4.0644E+01 9.9095E-01
 4.1478E+01 9.9095E-01
 4.2312E+01 9.9098E-01
 4.3146E+01 9.9100E-01
 4.3980E+01 9.9101E-01
 4.4814E+01 9.9100E-01
 4.5648E+01 9.9106E-01
 4.6482E+01 9.9111E-01
 4.7315E+01 9.9109E-01
 4.8149E+01 9.9108E-01
 4.8983E+01 9.9118E-01
 4.9817E+01 9.9116E-01
 5.0651E+01 9.9118E-01
 5.1485E+01 9.9118E-01
 5.2319E+01 9.9121E-01
 5.3153E+01 9.9126E-01
 5.3987E+01 9.9124E-01
 5.4820E+01 9.9126E-01
 5.5654E+01 9.9129E-01
 5.6488E+01 9.9132E-01
 5.7322E+01 9.9132E-01
 5.8156E+01 9.9136E-01
 5.8990E+01 9.9136E-01
 5.9824E+01 9.9136E-01
 6.0658E+01 9.9137E-01
 6.1492E+01 9.9144E-01
 6.2325E+01 9.9149E-01
 6.3159E+01 9.9148E-01
 6.3993E+01 9.9155E-01
 6.4827E+01 9.9154E-01
 6.5661E+01 9.9154E-01
 6.6495E+01 9.9157E-01
 6.7329E+01 9.9155E-01
 6.8163E+01 9.9161E-01
 6.8997E+01 9.9161E-01
 6.9830E+01 9.9161E-01
 7.0664E+01 9.9171E-01
 7.1498E+01 9.9169E-01
 7.2332E+01 9.9167E-01
 7.3166E+01 9.9178E-01
 7.4000E+01 9.9173E-01
 7.4834E+01 9.9175E-01
 7.5668E+01 9.9179E-01
 7.6502E+01 9.9183E-01
 7.7335E+01 9.9181E-01
 7.8169E+01 9.9184E-01
 7.9003E+01 9.9187E-01
 7.9837E+01 9.9188E-01
 8.0671E+01 9.9188E-01
 8.1505E+01 9.9194E-01
 8.2339E+01 9.9193E-01
 8.3173E+01 9.9195E-01
 8.4007E+01 9.9201E-01
 8.4840E+01 9.9202E-01
 8.5674E+01 9.9197E-01
 8.6508E+01 9.9209E-01
 8.7342E+01 9.9202E-01
 8.8176E+01 9.9212E-01
 8.9010E+01 9.9214E-01
 8.9844E+01 9.9210E-01
 9.0678E+01 9.9215E-01
 9.1512E+01 9.9216E-01
 9.2345E+01 9.9219E-01
 9.3179E+01 9.9219E-01
 9.4013E+01 9.9225E-01
 9.4847E+01 9.9223E-01
 9.5681E+01 9.9227E-01
 9.6515E+01 9.9226E-01
 9.7349E+01 9.9234E-01
 9.8183E+01 9.9234E-01
 9.9017E+01 9.9232E-01
 9.9851E+01 9.9238E-01
 1.0068E+02 9.9237E-01
 1.0152E+02 9.9242E-01
 1.0235E+02 9.9243E-01
 1.0319E+02 9.9249E-01
 1.0402E+02 9.9244E-01
 1.0485E+02 9.9252E-01
 1.0569E+02 9.9246E-01
 1.0652E+02 9.9249E-01
 1.0736E+02 9.9256E-01
 1.0819E+02 9.9254E-01
 1.0902E+02 9.9256E-01
 1.0986E+02 9.9258E-01
 1.1069E+02 9.9261E-01
 1.1152E+02 9.9266E-01
 1.1236E+02 9.9264E-01
 1.1319E+02 9.9267E-01
 1.1403E+02 9.9273E-01
 1.1486E+02 9.9272E-01
 1.1569E+02 9.9270E-01
 1.1653E+02 9.9272E-01
 1.1736E+02 9.9278E-01
 1.1820E+02 9.9283E-01
 1.1903E+02 9.9280E-01
 1.1986E+02 9.9286E-01
 1.2070E+02 9.9289E-01
 1.2153E+02 9.9288E-01
 1.2237E+02 9.9293E-01
 1.2320E+02 9.9295E-01
 1.2403E+02 9.9298E-01
 1.2487E+02 9.9300E-01
 1.2570E+02 9.9299E-01
 1.2653E+02 9.9298E-01
 1.2737E+02 9.9297E-01
 1.2820E+02 9.9307E-01
 1.2904E+02 9.9306E-01
 1.2987E+02 9.9310E-01
 1.3070E+02 9.9309E-01
 1.3154E+02 9.9310E-01
 1.3237E+02 9.9318E-01
 1.3321E+02 9.9313E-01
 1.3404E+02 9.9319E-01
 1.3487E+02 9.9320E-01
 1.3571E+02 9.9323E-01
 1.3654E+02 9.9325E-01
 1.3738E+02 9.9329E-01
 1.3821E+02 9.9324E-01
 1.3904E+02 9.9331E-01
 1.3988E+02 9.9339E-01
 1.4071E+02 9.9337E-01
 1.4154E+02 9.9342E-01
 1.4238E+02 9.9339E-01
 1.4321E+02 9.9338E-01
 1.4405E+02 9.9345E-01
 1.4488E+02 9.9343E-01
 1.4571E+02 9.9348E-01
 1.4655E+02 9.9352E-01
 1.4738E+02 9.9353E-01
 1.4822E+02 9.9354E-01
 1.4905E+02 9.9358E-01
 1.4988E+02 9.9359E-01
 1.5072E+02 9.9362E-01
 1.5155E+02 9.9362E-01
 1.5239E+02 9.9367E-01
 1.5322E+02 9.9366E-01
 1.5405E+02 9.9368E-01
 1.5489E+02 9.9372E-01
 1.5572E+02 9.9372E-01
 1.5655E+02 9.9374E-01
 1.5739E+02 9.9377E-01
 1.5822E+02 9.9377E-01
 1.5906E+02 9.9381E-01
 1.5989E+02 9.9380E-01
 1.6072E+02 9.9383E-01
 1.6156E+02 9.9379E-01
 1.6239E+02 9.9386E-01
 1.6323E+02 9.9391E-01
 1.6406E+02 9.9393E-01
 1.6489E+02 9.9393E-01
 1.6573E+02 9.9397E-01
 1.6656E+02 9.9397E-01
