-1.6616E+02 9.7183E-01
-1.6533E+02 9.7185E-01
-1.6449E+02 9.7190E-01
-1.6366E+02 9.7186E-01
-1.6282E+02 9.7190E-01
-1.6199E+02 9.7188E-01
-1.6116E+02 9.7192E-01
-1.6032E+02 9.7197E-01
-1.5949E+02 9.7196E-01
-1.5866E+02 9.7199E-01
-1.5782E+02 9.7204E-01
-1.5699E+02 9.7204E-01
-1.5615E+02 9.7209E-01
-1.5532E+02 9.7209E-01
-1.5449E+02 9.7207E-01
-1.5365E+02 9.7215E-01
-1.5282E+02 9.7215E-01
-1.5198E+02 9.7214E-01
-1.5115E+02 9.7217E-01
-1.5032E+02 9.7220E-01
-1.4948E+02 9.7224E-01
-1.4865E+02 9.7224E-01
-1.4781E+02 9.7223E-01
-1.4698E+02 9.7227E-01
-1.4615E+02 9.7235E-01
-1.4531E+02 9.7229E-01
-1.4448E+02 9.7233E-01
-1.4365E+02 9.7237E-01
-1.4281E+02 9.7240E-01
-1.4198E+02 9.7238E-01
-1.4114E+02 9.7243E-01
-1.4031E+02 9.7244E-01
-1.3948E+02 9.7247E-01
-1.3864E+02 9.7249E-01
-1.3781E+02 9.7251E-01
-1.3697E+02 9.7254E-01
-1.3614E+02 9.7250E-01
-1.3531E+02 9.7255E-01
-1.3447E+02 9.7260E-01
-1.3364E+02 9.7264E-01
-1.3280E+02 9.7264E-01
-1.3197E+02 9.7264E-01
-1.3114E+02 9.7268E-01
-1.3030E+02 9.7263E-01
-1.2947E+02 9.7266E-01
-1.2864E+02 9.7275E-01
-1.2780E+02 9.7274E-01
-1.2697E+02 9.7275E-01
-1.2613E+02 9.7282E-01
-1.2530E+02 9.7282E-01
-1.2447E+02 9.7285E-01
-1.2363E+02 9.7282E-01
-1.2280E+02 9.7287E-01
-1.2196E+02 9.7293E-01
-1.2113E+02 9.7286E-01
-1.2030E+02 9.7293E-01
-1.1946E+02 9.7298E-01
-1.1863E+02 9.7297E-01
-1.1779E+02 9.7299E-01
-1.1696E+02 9.7299E-01
-1.1613E+02 9.7307E-01
-1.1529E+02 9.7309E-01
-1.1446E+02 9.7307E-01
-1.1363E+02 9.7308E-01
-1.1279E+02 9.7313E-01
-1.1196E+02 9.7312E-01
-1.1112E+02 9.7318E-01
-1.1029E+02 9.7315E-01
-1.0946E+02 9.7316E-01
-1.0862E+02 9.7324E-01
-1.0779E+02 9.7327E-01
-1.0695E+02 9.7330E-01
-1.0612E+02 9.7332E-01
-1.0529E+02 9.7329E-01
-1.0445E+02 9.7334E-01
-1.0362E+02 9.7332E-01
-1.0278E+02 9.7337E-01
-1.0195E+02 9.7340E-01
-1.0112E+02 9.7340E-01
-1.0028E+02 9.7341E-01
-9.9449E+01 9.7342E-01
-9.8615E+01 9.7346E-01
-9.7781E+01 9.7348E-01
-9.6947E+01 9.7351E-01
-9.6114E+01 9.7357E-01
-9.5280E+01 9.7356E-01
-9.4446E+01 9.7360E-01
-9.3612E+01 9.7354E-01
-9.2778E+01 9.7360E-01
-9.1944E+01 9.7364E-01
-9.1110E+01 9.7368E-01
-9.0276E+01 9.7366E-01
-8.9442E+01 9.7367E-01
-8.8608E+01 9.7367E-01
-8.7775E+01 9.7374E-01
-8.6941E+01 9.7377E-01
-8.6107E+01 9.7373E-01
-8.5273E+01 9.7378E-01
-8.4439E+01 9.7380E-01
-8.3605E+01 9.7383E-01
-8.2771E+01 9.7388E-01
-8.1937E+01 9.7389E-01
-8.1103E+01 9.7389E-01
-8.0270E+01 9.7388E-01
-7.9436E+01 9.7395E-01
-7.8602E+01 9.7400E-01
-7.7768E+01 9.7400E-01
-7.6934E+01 9.7400E-01
-7.6100E+01 9.7405E-01
-7.5266E+01 9.7403E-01
-7.4432E+01 9.7400E-01
-7.3598E+01 9.7407E-01
-7.2765E+01 9.7410E-01
-7.1931E+01 9.7408E-01
-7.1097E+01 9.7415E-01
-7.0263E+01 9.7419E-01
-6.9429E+01 9.7416E-01
-6.8595E+01 9.7420E-01
-6.7761E+01 9.7422E-01
-6.6927E+01 9.7425E-01
-6.6093E+01 9.7426E-01
-6.5260E+01 9.7426E-01
-6.4426E+01 9.7431E-01
-6.3592E+01 9.7431E-01
-6.2758E+01 9.7437E-01
-6.1924E+01 9.7434E-01
-6.1090E+01 9.7439E-01
-6.0256E+01 9.7437E-01
-5.9422E+01 9.7439E-01
-5.8588E+01 9.7444E-01
-5.7755E+01 9.7446E-01
-5.6921E+01 9.7450E-01
-5.6087E+01 9.7450E-01
-5.5253E+01 9.7454E-01
-5.4419E+01 9.7454E-01
-5.3585E+01 9.7455E-01
-5.2751E+01 9.7456E-01
-5.1917E+01 9.7460E-01
-5.1083E+01 9.7461E-01
-5.0250E+01 9.7465E-01
-4.9416E+01 9.7466E-01
-4.8582E+01 9.7466E-01
-4.7748E+01 9.7470E-01
-4.6914E+01 9.7473E-01
-4.6080E+01 9.7475E-01
-4.5246E+01 9.7478E-01
-4.4412E+01 9.7477E-01
-4.3578E+01 9.7484E-01
-4.2745E+01 9.7482E-01
-4.1911E+01 9.7481E-01
-4.1077E+01 9.7488E-01
-4.0243E+01 9.7489E-01
-3.9409E+01 9.7492E-01
-3.8575E+01 9.7493E-01
-3.7741E+01 9.7492E-01
-3.6907E+01 9.7494E-01
-3.6073E+01 9.7501E-01
-3.5240E+01 9.7499E-01
-3.4406E+01 9.7502E-01
-3.3572E+01 9.7508E-01
-3.2738E+01 9.7506E-01
-3.1904E+01 9.7506E-01
-3.1070E+01 9.7511E-01
-3.0236E+01 9.7513E-01
-2.9402E+01 9.7514E-01
-2.8568E+01 9.7519E-01
-2.7735E+01 9.7518E-01
-2.6901E+01 9.7521E-01
-2.6067E+01 9.7523E-01
-2.5233E+01 9.7526E-01
-2.4399E+01 9.7528E-01
-2.3565E+01 9.7528E-01
-2.2731E+01 9.7532E-01
-2.1897E+01 9.7534E-01
-2.1063E+01 9.7536E-01
-2.0230E+01 9.7536E-01
-1.9396E+01 9.7540E-01
-1.8562E+01 9.7540E-01
-1.7728E+01 9.7540E-01
-1.6894E+01 9.7547E-01
-1.6060E+01 9.7547E-01
-1.5226E+01 9.7553E-01
-1.4392E+01 9.7550E-01
-1.3558E+01 9.7555E-01
-1.2725E+01 9.7553E-01
-1.1891E+01 9.7554E-01
-1.1057E+01 9.7559E-01
-1.0223E+01 9.7561E-01
-9.3890E+00 9.7563E-01
-8.5551E+00 9.7567E-01
-7.7212E+00 9.7567E-01
-6.8873E+00 9.7572E-01
-6.0534E+00 9.7577E-01
-5.2196E+00 9.7572E-01
-4.3857E+00 9.7578E-01
-3.5518E+00 9.7576E-01
-2.7179E+00 9.7577E-01
-1.8840E+00 9.7581E-01
-1.0501E+00 9.7581E-01
-2.1622E-01 9.7581E-01
 6.1766E-01 9.7587E-01
 1.4516E+00 9.7587E-01
 2.2854E+00 9.7588E-01
 3.1193E+00 9.7591E-01
 3.9532E+00 9.7597E-01
 4.7871E+00 9.7595E-01
 5.6210E+00 9.7606E-01
 6.4549E+00 9.7604E-01
 7.2888E+00 9.7606E-01
 8.1227E+00 9.7607E-01
 8.9566E+00 9.7610E-01
 9.7904E+00 9.7608E-01
 1.0624E+01 9.7611E-01
 1.1458E+01 9.7610E-01
 1.2292E+01 9.7613E-01
 1.3126E+01 9.7618E-01
 1.3960E+01 9.7618E-01
 1.4794E+01 9.7621E-01
 1.5628E+01 9.7626E-01
 1.6462E+01 9.7628E-01
 1.7295E+01 9.7624E-01
 1.8129E+01 9.7630E-01
 1.8963E+01 9.7632E-01
 1.9797E+01 9.7629E-01
 2.0631E+01 9.7636E-01
 2.1465E+01 9.7640E-01
 2.2299E+01 9.7637E-01
 2.3133E+01 9.7641E-01
 2.3967E+01 9.7646E-01
 2.4800E+01 9.7648E-01
 2.5634E+01 9.7648E-01
 2.6468E+01 9.7651E-01
 2.7302E+01 9.7652E-01
 2.8136E+01 9.7655E-01
 2.8970E+01 9.7660E-01
 2.9804E+01 9.7660E-01
 3.0638E+01 9.7664E-01
 3.1472E+01 9.7665E-01
 3.2305E+01 9.7662E-01
 3.3139E+01 9.7666E-01
 3.3973E+01 9.7671E-01
 3.4807E+01 9.7669E-01
 3.5641E+01 9.7673E-01
 3.6475E+01 9.7673E-01
 3.7309E+01 9.7677E-01
 3.8143E+01 9.7681E-01
 3.8977E+01 9.7683E-01
 3.9810E+01 9.7682E-01
 4.0644E+01 9.7686E-01
 4.1478E+01 9.7688E-01
 4.2312E+01 9.7687E-01
 4.3146E+01 9.7695E-01
 4.3980E+01 9.7692E-01
 4.4814E+01 9.7694E-01
 4.5648E+01 9.7700E-01
 4.6482E+01 9.7698E-01
 4.7315E+01 9.7704E-01
 4.8149E+01 9.7703E-01
 4.8983E+01 9.7701E-01
 4.9817E+01 9.7704E-01
 5.0651E+01 9.7705E-01
 5.1485E+01 9.7707E-01
 5.2319E+01 9.7710E-01
 5.3153E+01 9.7718E-01
 5.3987E+01 9.7718E-01
 5.4820E+01 9.7716E-01
 5.5654E+01 9.7721E-01
 5.6488E+01 9.7724E-01
 5.7322E+01 9.7725E-01
 5.8156E+01 9.7731E-01
 5.8990E+01 9.7727E-01
 5.9824E+01 9.7727E-01
 6.0658E+01 9.7737E-01
 6.1492E+01 9.7733E-01
 6.2325E+01 9.7738E-01
 6.3159E+01 9.7737E-01
 6.3993E+01 9.7744E-01
 6.4827E+01 9.7743E-01
 6.5661E+01 9.7746E-01
 6.6495E+01 9.7749E-01
 6.7329E+01 9.7746E-01
 6.8163E+01 9.7752E-01
 6.8997E+01 9.7750E-01
 6.9830E+01 9.7751E-01
 7.0664E+01 9.7759E-01
 7.1498E+01 9.7757E-01
 7.2332E+01 9.7762E-01
 7.3166E+01 9.7767E-01
 7.4000E+01 9.7767E-01
 7.4834E+01 9.7772E-01
 7.5668E+01 9.7768E-01
 7.6502E+01 9.7771E-01
 7.7335E+01 9.7769E-01
 7.8169E+01 9.7777E-01
 7.9003E+01 9.7776E-01
 7.9837E+01 9.7779E-01
 8.0671E+01 9.7779E-01
 8.1505E+01 9.7785E-01
 8.2339E+01 9.7784E-01
 8.3173E+01 9.7790E-01
 8.4007E+01 9.7790E-01
 8.4840E+01 9.7791E-01
 8.5674E+01 9.7789E-01
 8.6508E+01 9.7796E-01
 8.7342E+01 9.7794E-01
 8.8176E+01 9.7801E-01
 8.9010E+01 9.7795E-01
 8.9844E+01 9.7806E-01
 9.0678E+01 9.7806E-01
 9.1512E+01 9.7808E-01
 9.2345E+01 9.7806E-01
 9.3179E+01 9.7810E-01
 9.4013E+01 9.7816E-01
 9.4847E+01 9.7817E-01
 9.5681E+01 9.7813E-01
 9.6515E+01 9.7822E-01
 9.7349E+01 9.7820E-01
 9.8183E+01 9.7823E-01
 9.9017E+01 9.7823E-01
 9.9851E+01 9.7828E-01
 1.0068E+02 9.7828E-01
 1.0152E+02 9.7834E-01
 1.0235E+02 9.7834E-01
 1.0319E+02 9.7834E-01
 1.0402E+02 9.7837E-01
 1.0485E+02 9.7842E-01
 1.0569E+02 9.7843E-01
 1.0652E+02 9.7847E-01
 1.0736E+02 9.7846E-01
 1.0819E+02 9.7845E-01
 1.0902E+02 9.7851E-01
 1.0986E+02 9.7851E-01
 1.1069E+02 9.7856E-01
 1.1152E+02 9.7858E-01
 1.1236E+02 9.7855E-01
 1.1319E+02 9.7860E-01
 1.1403E+02 9.7858E-01
 1.1486E+02 9.7863E-01
 1.1569E+02 9.7864E-01
 1.1653E+02 9.7869E-01
 1.1736E+02 9.7866E-01
 1.1820E+02 9.7871E-01
 1.1903E+02 9.7870E-01
 1.1986E+02 9.7876E-01
 1.2070E+02 9.7874E-01
 1.2153E+02 9.7877E-01
 1.2237E+02 9.7886E-01
 1.2320E+02 9.7885E-01
 1.2403E+02 9.7886E-01
 1.2487E+02 9.7886E-01
 1.2570E+02 9.7894E-01
 1.2653E+02 9.7890E-01
 1.2737E+02 9.7895E-01
 1.2820E+02 9.7894E-01
 1.2904E+02 9.7896E-01
 1.2987E+02 9.7899E-01
 1.3070E+02 9.7901E-01
 1.3154E+02 9.7903E-01
 1.3237E+02 9.7909E-01
 1.3321E+02 9.7906E-01
 1.3404E+02 9.7912E-01
 1.3487E+02 9.7911E-01
 1.3571E+02 9.7911E-01
 1.3654E+02 9.7918E-01
 1.3738E+02 9.7911E-01
 1.3821E+02 9.7923E-01
 1.3904E+02 9.7925E-01
 1.3988E+02 9.7922E-01
 1.4071E+02 9.7931E-01
 1.4154E+02 9.7929E-01
 1.4238E+02 9.7935E-01
 1.4321E+02 9.7933E-01
 1.4405E+02 9.7936E-01
 1.4488E+02 9.7941E-01
 1.4571E+02 9.7935E-01
 1.4655E+02 9.7942E-01
 1.4738E+02 9.7940E-01
 1.4822E+02 9.7944E-01
 1.4905E+02 9.7946E-01
 1.4988E+02 9.7952E-01
 1.5072E+02 9.7952E-01
 1.5155E+02 9.7949E-01
 1.5239E+02 9.7955E-01
 1.5322E+02 9.7955E-01
 1.5405E+02 9.7961E-01
 1.5489E+02 9.7958E-01
 1.5572E+02 9.7967E-01
 1.5655E+02 9.7962E-01
 1.5739E+02 9.7966E-01
 1.5822E+02 9.7975E-01
 1.5906E+02 9.7965E-01
 1.5989E+02 9.7969E-01
 1.6072E+02 9.7975E-01
 1.6156E+02 9.7975E-01
 1.6239E+02 9.7981E-01
 1.6323E+02 9.7985E-01
 1.6406E+02 9.7980E-01
 1.6489E+02 9.7982E-01
 1.6573E+02 9.7984E-01
 1.6656E+02 9.7990E-01
