-1.6616E+02 9.7895E-01
-1.6533E+02 9.7898E-01
-1.6449E+02 9.7894E-01
-1.6366E+02 9.7902E-01
-1.6282E+02 9.7901E-01
-1.6199E+02 9.7902E-01
-1.6116E+02 9.7905E-01
-1.6032E+02 9.7908E-01
-1.5949E+02 9.7910E-01
-1.5866E+02 9.7915E-01
-1.5782E+02 9.7913E-01
-1.5699E+02 9.7919E-01
-1.5615E+02 9.7917E-01
-1.5532E+02 9.7922E-01
-1.5449E+02 9.7926E-01
-1.5365E+02 9.7925E-01
-1.5282E+02 9.7929E-01
-1.5198E+02 9.7930E-01
-1.5115E+02 9.7930E-01
-1.5032E+02 9.7931E-01
-1.4948E+02 9.7940E-01
-1.4865E+02 9.7934E-01
-1.4781E+02 9.7940E-01
-1.4698E+02 9.7942E-01
-1.4615E+02 9.7940E-01
-1.4531E+02 9.7940E-01
-1.4448E+02 9.7946E-01
-1.4365E+02 9.7948E-01
-1.4281E+02 9.7953E-01
-1.4198E+02 9.7958E-01
-1.4114E+02 9.7955E-01
-1.4031E+02 9.7958E-01
-1.3948E+02 9.7958E-01
-1.3864E+02 9.7963E-01
-1.3781E+02 9.7968E-01
-1.3697E+02 9.7962E-01
-1.3614E+02 9.7972E-01
-1.3531E+02 9.7972E-01
-1.3447E+02 9.7972E-01
-1.3364E+02 9.7975E-01
-1.3280E+02 9.7972E-01
-1.3197E+02 9.7978E-01
-1.3114E+02 9.7978E-01
-1.3030E+02 9.7981E-01
-1.2947E+02 9.7986E-01
-1.2864E+02 9.7987E-01
-1.2780E+02 9.7992E-01
-1.2697E+02 9.7988E-01
-1.2613E+02 9.7992E-01
-1.2530E+02 9.7996E-01
-1.2447E+02 9.7993E-01
-1.2363E+02 9.7996E-01
-1.2280E+02 9.8001E-01
-1.2196E+02 9.7999E-01
-1.2113E+02 9.8005E-01
-1.2030E+02 9.8007E-01
-1.1946E+02 9.8009E-01
-1.1863E+02 9.8009E-01
-1.1779E+02 9.8011E-01
-1.1696E+02 9.8013E-01
-1.1613E+02 9.8012E-01
-1.1529E+02 9.8022E-01
-1.1446E+02 9.8017E-01
-1.1363E+02 9.8024E-01
-1.1279E+02 9.8025E-01
-1.1196E+02 9.8023E-01
-1.1112E+02 9.8029E-01
-1.1029E+02 9.8027E-01
-1.0946E+02 9.8030E-01
-1.0862E+02 9.8034E-01
-1.0779E+02 9.8040E-01
-1.0695E+02 9.8037E-01
-1.0612E+02 9.8039E-01
-1.0529E+02 9.8044E-01
-1.0445E+02 9.8045E-01
-1.0362E+02 9.8045E-01
-1.0278E+02 9.8048E-01
-1.0195E+02 9.8050E-01
-1.0112E+02 9.8054E-01
-1.0028E+02 9.8050E-01
-9.9449E+01 9.8057E-01
-9.8615E+01 9.8056E-01
-9.7781E+01 9.8062E-01
-9.6947E+01 9.8064E-01
-9.6114E+01 9.8067E-01
-9.5280E+01 9.8068E-01
-9.4446E+01 9.8065E-01
-9.3612E+01 9.8072E-01
-9.2778E+01 9.8072E-01
-9.1944E+01 9.8079E-01
-9.1110E+01 9.8080E-01
-9.0276E+01 9.8081E-01
-8.9442E+01 9.8083E-01
-8.8608E+01 9.8079E-01
-8.7775E+01 9.8085E-01
-8.6941E+01 9.8085E-01
-8.6107E+01 9.8087E-01
-8.5273E+01 9.8093E-01
-8.4439E+01 9.8092E-01
-8.3605E+01 9.8096E-01
-8.2771E+01 9.8096E-01
-8.1937E+01 9.8099E-01
-8.1103E+01 9.8103E-01
-8.0270E+01 9.8103E-01
-7.9436E+01 9.8104E-01
-7.8602E+01 9.8106E-01
-7.7768E+01 9.8117E-01
-7.6934E+01 9.8113E-01
-7.6100E+01 9.8114E-01
-7.5266E+01 9.8118E-01
-7.4432E+01 9.8114E-01
-7.3598E+01 9.8118E-01
-7.2765E+01 9.8124E-01
-7.1931E+01 9.8125E-01
-7.1097E+01 9.8124E-01
-7.0263E+01 9.8128E-01
-6.9429E+01 9.8126E-01
-6.8595E+01 9.8131E-01
-6.7761E+01 9.8134E-01
-6.6927E+01 9.8140E-01
-6.6093E+01 9.8139E-01
-6.5260E+01 9.8142E-01
-6.4426E+01 9.8144E-01
-6.3592E+01 9.8146E-01
-6.2758E+01 9.8146E-01
-6.1924E+01 9.8147E-01
-6.1090E+01 9.8147E-01
-6.0256E+01 9.8148E-01
-5.9422E+01 9.8159E-01
-5.8588E+01 9.8152E-01
-5.7755E+01 9.8162E-01
-5.6921E+01 9.8168E-01
-5.6087E+01 9.8164E-01
-5.5253E+01 9.8165E-01
-5.4419E+01 9.8173E-01
-5.3585E+01 9.8168E-01
-5.2751E+01 9.8173E-01
-5.1917E+01 9.8174E-01
-5.1083E+01 9.8173E-01
-5.0250E+01 9.8179E-01
-4.9416E+01 9.8176E-01
-4.8582E+01 9.8180E-01
-4.7748E+01 9.8184E-01
-4.6914E+01 9.8183E-01
-4.6080E+01 9.8188E-01
-4.5246E+01 9.8188E-01
-4.4412E+01 9.8190E-01
-4.3578E+01 9.8192E-01
-4.2745E+01 9.8195E-01
-4.1911E+01 9.8198E-01
-4.1077E+01 9.8197E-01
-4.0243E+01 9.8204E-01
-3.9409E+01 9.8200E-01
-3.8575E+01 9.8201E-01
-3.7741E+01 9.8207E-01
-3.6907E+01 9.8212E-01
-3.6073E+01 9.8213E-01
-3.5240E+01 9.8207E-01
-3.4406E+01 9.8219E-01
-3.3572E+01 9.8220E-01
-3.2738E+01 9.8214E-01
-3.1904E+01 9.8218E-01
-3.1070E+01 9.8225E-01
-3.0236E+01 9.8221E-01
-2.9402E+01 9.8225E-01
-2.8568E+01 9.8228E-01
-2.7735E+01 9.8231E-01
-2.6901E+01 9.8232E-01
-2.6067E+01 9.8233E-01
-2.5233E+01 9.8240E-01
-2.4399E+01 9.8238E-01
-2.3565E+01 9.8240E-01
-2.2731E+01 9.8244E-01
-2.1897E+01 9.8248E-01
-2.1063E+01 9.8240E-01
-2.0230E+01 9.8255E-01
-1.9396E+01 9.8249E-01
-1.8562E+01 9.8248E-01
-1.7728E+01 9.8257E-01
-1.6894E+01 9.8258E-01
-1.6060E+01 9.8259E-01
-1.5226E+01 9.8257E-01
-1.4392E+01 9.8264E-01
-1.3558E+01 9.8269E-01
-1.2725E+01 9.8270E-01
-1.1891E+01 9.8272E-01
-1.1057E+01 9.8274E-01
-1.0223E+01 9.8275E-01
-9.3890E+00 9.8272E-01
-8.5551E+00 9.8278E-01
-7.7212E+00 9.8278E-01
-6.8873E+00 9.8280E-01
-6.0534E+00 9.8283E-01
-5.2196E+00 9.8288E-01
-4.3857E+00 9.8288E-01
-3.5518E+00 9.8294E-01
-2.7179E+00 9.8296E-01
-1.8840E+00 9.8297E-01
-1.0501E+00 9.8296E-01
-2.1622E-01 9.8299E-01
 6.1766E-01 9.8299E-01
 1.4516E+00 9.8303E-01
 2.2854E+00 9.8308E-01
 3.1193E+00 9.8307E-01
 3.9532E+00 9.8306E-01
 4.7871E+00 9.8311E-01
 5.6210E+00 9.8308E-01
 6.4549E+00 9.8314E-01
 7.2888E+00 9.8314E-01
 8.1227E+00 9.8316E-01
 8.9566E+00 9.8315E-01
 9.7904E+00 9.8325E-01
 1.0624E+01 9.8325E-01
 1.1458E+01 9.8327E-01
 1.2292E+01 9.8328E-01
 1.3126E+01 9.8331E-01
 1.3960E+01 9.8333E-01
 1.4794E+01 9.8332E-01
 1.5628E+01 9.8337E-01
 1.6462E+01 9.8340E-01
 1.7295E+01 9.8341E-01
 1.8129E+01 9.8340E-01
 1.8963E+01 9.8341E-01
 1.9797E+01 9.8347E-01
 2.0631E+01 9.8347E-01
 2.1465E+01 9.8346E-01
 2.2299E+01 9.8353E-01
 2.3133E+01 9.8354E-01
 2.3967E+01 9.8361E-01
 2.4800E+01 9.8356E-01
 2.5634E+01 9.8360E-01
 2.6468E+01 9.8363E-01
 2.7302E+01 9.8363E-01
 2.8136E+01 9.8367E-01
 2.8970E+01 9.8368E-01
 2.9804E+01 9.8372E-01
 3.0638E+01 9.8377E-01
 3.1472E+01 9.8374E-01
 3.2305E+01 9.8373E-01
 3.3139E+01 9.8378E-01
 3.3973E+01 9.8386E-01
 3.4807E+01 9.8379E-01
 3.5641E+01 9.8385E-01
 3.6475E+01 9.8392E-01
 3.7309E+01 9.8394E-01
 3.8143E+01 9.8390E-01
 3.8977E+01 9.8393E-01
 3.9810E+01 9.8395E-01
 4.0644E+01 9.8390E-01
 4.1478E+01 9.8401E-01
 4.2312E+01 9.8401E-01
 4.3146E+01 9.8402E-01
 4.3980E+01 9.8408E-01
 4.4814E+01 9.8407E-01
 4.5648E+01 9.8411E-01
 4.6482E+01 9.8409E-01
 4.7315E+01 9.8412E-01
 4.8149E+01 9.8412E-01
 4.8983E+01 9.8410E-01
 4.9817E+01 9.8418E-01
 5.0651E+01 9.8418E-01
 5.1485E+01 9.8424E-01
 5.2319E+01 9.8423E-01
 5.3153E+01 9.8429E-01
 5.3987E+01 9.8424E-01
 5.4820E+01 9.8431E-01
 5.5654E+01 9.8433E-01
 5.6488E+01 9.8435E-01
 5.7322E+01 9.8437E-01
 5.8156E+01 9.8438E-01
 5.8990E+01 9.8439E-01
 5.9824E+01 9.8440E-01
 6.0658E+01 9.8447E-01
 6.1492E+01 9.8446E-01
 6.2325E+01 9.8444E-01
 6.3159E+01 9.8454E-01
 6.3993E+01 9.8457E-01
 6.4827E+01 9.8455E-01
 6.5661E+01 9.8456E-01
 6.6495E+01 9.8462E-01
 6.7329E+01 9.8465E-01
 6.8163E+01 9.8461E-01
 6.8997E+01 9.8463E-01
 6.9830E+01 9.8461E-01
 7.0664E+01 9.8467E-01
 7.1498E+01 9.8469E-01
 7.2332E+01 9.8474E-01
 7.3166E+01 9.8475E-01
 7.4000E+01 9.8478E-01
 7.4834E+01 9.8480E-01
 7.5668E+01 9.8483E-01
 7.6502E+01 9.8480E-01
 7.7335E+01 9.8485E-01
 7.8169E+01 9.8485E-01
 7.9003E+01 9.8489E-01
 7.9837E+01 9.8485E-01
 8.0671E+01 9.8493E-01
 8.1505E+01 9.8489E-01
 8.2339E+01 9.8498E-01
 8.3173E+01 9.8499E-01
 8.4007E+01 9.8504E-01
 8.4840E+01 9.8504E-01
 8.5674E+01 9.8505E-01
 8.6508E+01 9.8504E-01
 8.7342E+01 9.8508E-01
 8.8176E+01 9.8509E-01
 8.9010E+01 9.8514E-01
 8.9844E+01 9.8515E-01
 9.0678E+01 9.8513E-01
 9.1512E+01 9.8521E-01
 9.2345E+01 9.8519E-01
 9.3179E+01 9.8524E-01
 9.4013E+01 9.8522E-01
 9.4847E+01 9.8528E-01
 9.5681E+01 9.8537E-01
 9.6515E+01 9.8534E-01
 9.7349E+01 9.8537E-01
 9.8183E+01 9.8536E-01
 9.9017E+01 9.8537E-01
 9.9851E+01 9.8535E-01
 1.0068E+02 9.8543E-01
 1.0152E+02 9.8541E-01
 1.0235E+02 9.8545E-01
 1.0319E+02 9.8552E-01
 1.0402E+02 9.8550E-01
 1.0485E+02 9.8552E-01
 1.0569E+02 9.8552E-01
 1.0652E+02 9.8554E-01
 1.0736E+02 9.8554E-01
 1.0819E+02 9.8560E-01
 1.0902E+02 9.8559E-01
 1.0986E+02 9.8566E-01
 1.1069E+02 9.8569E-01
 1.1152E+02 9.8569E-01
 1.1236E+02 9.8570E-01
 1.1319E+02 9.8574E-01
 1.1403E+02 9.8576E-01
 1.1486E+02 9.8576E-01
 1.1569E+02 9.8580E-01
 1.1653E+02 9.8582E-01
 1.1736E+02 9.8585E-01
 1.1820E+02 9.8588E-01
 1.1903E+02 9.8585E-01
 1.1986E+02 9.8591E-01
 1.2070E+02 9.8590E-01
 1.2153E+02 9.8588E-01
 1.2237E+02 9.8592E-01
 1.2320E+02 9.8596E-01
 1.2403E+02 9.8600E-01
 1.2487E+02 9.8598E-01
 1.2570E+02 9.8604E-01
 1.2653E+02 9.8601E-01
 1.2737E+02 9.8608E-01
 1.2820E+02 9.8608E-01
 1.2904E+02 9.8608E-01
 1.2987E+02 9.8613E-01
 1.3070E+02 9.8613E-01
 1.3154E+02 9.8616E-01
 1.3237E+02 9.8617E-01
 1.3321E+02 9.8619E-01
 1.3404E+02 9.8617E-01
 1.3487E+02 9.8630E-01
 1.3571E+02 9.8625E-01
 1.3654E+02 9.8630E-01
 1.3738E+02 9.8627E-01
 1.3821E+02 9.8633E-01
 1.3904E+02 9.8632E-01
 1.3988E+02 9.8643E-01
 1.4071E+02 9.8637E-01
 1.4154E+02 9.8642E-01
 1.4238E+02 9.8641E-01
 1.4321E+02 9.8647E-01
 1.4405E+02 9.8645E-01
 1.4488E+02 9.8644E-01
 1.4571E+02 9.8651E-01
 1.4655E+02 9.8653E-01
 1.4738E+02 9.8657E-01
 1.4822E+02 9.8658E-01
 1.4905E+02 9.8663E-01
 1.4988E+02 9.8659E-01
 1.5072E+02 9.8666E-01
 1.5155E+02 9.8668E-01
 1.5239E+02 9.8666E-01
 1.5322E+02 9.8674E-01
 1.5405E+02 9.8668E-01
 1.5489E+02 9.8675E-01
 1.5572E+02 9.8677E-01
 1.5655E+02 9.8678E-01
 1.5739E+02 9.8684E-01
 1.5822E+02 9.8678E-01
 1.5906E+02 9.8686E-01
 1.5989E+02 9.8684E-01
 1.6072E+02 9.8685E-01
 1.6156E+02 9.8693E-01
 1.6239E+02 9.8691E-01
 1.6323E+02 9.8693E-01
 1.6406E+02 9.8692E-01
 1.6489E+02 9.8700E-01
 1.6573E+02 9.8698E-01
 1.6656E+02 9.8702E-01
