-1.6616E+02 9.6821E-01
-1.6533E+02 9.6822E-01
-1.6449E+02 9.6824E-01
-1.6366E+02 9.6826E-01
-1.6282E+02 9.6824E-01
-1.6199E+02 9.6830E-01
-1.6116E+02 9.6834E-01
-1.6032E+02 9.6836E-01
-1.5949E+02 9.6835E-01
-1.5866E+02 9.6842E-01
-1.5782E+02 9.6839E-01
-1.5699E+02 9.6845E-01
-1.5615E+02 9.6843E-01
-1.5532E+02 9.6843E-01
-1.5449E+02 9.6848E-01
-1.5365E+02 9.6850E-01
-1.5282E+02 9.6851E-01
-1.5198E+02 9.6856E-01
-1.5115E+02 9.6856E-01
-1.5032E+02 9.6864E-01
-1.4948E+02 9.6862E-01
-1.4865E+02 9.6865E-01
-1.4781E+02 9.6863E-01
-1.4698E+02 9.6869E-01
-1.4615E+02 9.6864E-01
-1.4531E+02 9.6872E-01
-1.4448E+02 9.6873E-01
-1.4365E+02 9.6874E-01
-1.4281E+02 9.6878E-01
-1.4198E+02 9.6877E-01
-1.4114E+02 9.6880E-01
-1.4031E+02 9.6883E-01
-1.3948E+02 9.6887E-01
-1.3864E+02 9.6885E-01
-1.3781E+02 9.6882E-01
-1.3697E+02 9.6888E-01
-1.3614E+02 9.6895E-01
-1.3531E+02 9.6895E-01
-1.3447E+02 9.6894E-01
-1.3364E+02 9.6900E-01
-1.3280E+02 9.6907E-01
-1.3197E+02 9.6909E-01
-1.3114E+02 9.6907E-01
-1.3030E+02 9.6904E-01
-1.2947E+02 9.6914E-01
-1.2864E+02 9.6909E-01
-1.2780E+02 9.6916E-01
-1.2697E+02 9.6914E-01
-1.2613E+02 9.6915E-01
-1.2530E+02 9.6917E-01
-1.2447E+02 9.6926E-01
-1.2363E+02 9.6924E-01
-1.2280E+02 9.6929E-01
-1.2196E+02 9.6927E-01
-1.2113E+02 9.6928E-01
-1.2030E+02 9.6933E-01
-1.1946E+02 9.6930E-01
-1.1863E+02 9.6933E-01
-1.1779E+02 9.6938E-01
-1.1696E+02 9.6940E-01
-1.1613E+02 9.6941E-01
-1.1529E+02 9.6943E-01
-1.1446E+02 9.6942E-01
-1.1363E+02 9.6948E-01
-1.1279E+02 9.6944E-01
-1.1196E+02 9.6951E-01
-1.1112E+02 9.6953E-01
-1.1029E+02 9.6959E-01
-1.0946E+02 9.6957E-01
-1.0862E+02 9.6965E-01
-1.0779E+02 9.6962E-01
-1.0695E+02 9.6960E-01
-1.0612E+02 9.6969E-01
-1.0529E+02 9.6966E-01
-1.0445E+02 9.6971E-01
-1.0362E+02 9.6975E-01
-1.0278E+02 9.6971E-01
-1.0195E+02 9.6975E-01
-1.0112E+02 9.6975E-01
-1.0028E+02 9.6976E-01
-9.9449E+01 9.6979E-01
-9.8615E+01 9.6984E-01
-9.7781E+01 9.6987E-01
-9.6947E+01 9.6991E-01
-9.6114E+01 9.6992E-01
-9.5280E+01 9.6992E-01
-9.4446E+01 9.6994E-01
-9.3612E+01 9.6994E-01
-9.2778E+01 9.7001E-01
-9.1944E+01 9.7001E-01
-9.1110E+01 9.7004E-01
-9.0276E+01 9.7007E-01
-8.9442E+01 9.7005E-01
-8.8608E+01 9.7005E-01
-8.7775E+01 9.7013E-01
-8.6941E+01 9.7016E-01
-8.6107E+01 9.7015E-01
-8.5273E+01 9.7015E-01
-8.4439E+01 9.7017E-01
-8.3605E+01 9.7020E-01
-8.2771E+01 9.7023E-01
-8.1937E+01 9.7029E-01
-8.1103E+01 9.7026E-01
-8.0270E+01 9.7036E-01
-7.9436E+01 9.7027E-01
-7.8602E+01 9.7033E-01
-7.7768E+01 9.7040E-01
-7.6934E+01 9.7035E-01
-7.6100E+01 9.7042E-01
-7.5266E+01 9.7044E-01
-7.4432E+01 9.7039E-01
-7.3598E+01 9.7045E-01
-7.2765E+01 9.7048E-01
-7.1931E+01 9.7051E-01
-7.1097E+01 9.7048E-01
-7.0263E+01 9.7053E-01
-6.9429E+01 9.7053E-01
-6.8595E+01 9.7056E-01
-6.7761E+01 9.7057E-01
-6.6927E+01 9.7066E-01
-6.6093E+01 9.7061E-01
-6.5260E+01 9.7070E-01
-6.4426E+01 9.7069E-01
-6.3592E+01 9.7068E-01
-6.2758E+01 9.7079E-01
-6.1924E+01 9.7070E-01
-6.1090E+01 9.7074E-01
-6.0256E+01 9.7083E-01
-5.9422E+01 9.7081E-01
-5.8588E+01 9.7079E-01
-5.7755E+01 9.7085E-01
-5.6921E+01 9.7086E-01
-5.6087E+01 9.7086E-01
-5.5253E+01 9.7094E-01
-5.4419E+01 9.7093E-01
-5.3585E+01 9.7092E-01
-5.2751E+01 9.7094E-01
-5.1917E+01 9.7094E-01
-5.1083E+01 9.7100E-01
-5.0250E+01 9.7106E-01
-4.9416E+01 9.7112E-01
-4.8582E+01 9.7111E-01
-4.7748E+01 9.7105E-01
-4.6914E+01 9.7108E-01
-4.6080E+01 9.7111E-01
-4.5246E+01 9.7115E-01
-4.4412E+01 9.7115E-01
-4.3578E+01 9.7119E-01
-4.2745E+01 9.7121E-01
-4.1911E+01 9.7127E-01
-4.1077E+01 9.7126E-01
-4.0243E+01 9.7123E-01
-3.9409E+01 9.7123E-01
-3.8575E+01 9.7130E-01
-3.7741E+01 9.7131E-01
-3.6907E+01 9.7133E-01
-3.6073E+01 9.7141E-01
-3.5240E+01 9.7134E-01
-3.4406E+01 9.7142E-01
-3.3572E+01 9.7146E-01
-3.2738E+01 9.7145E-01
-3.1904E+01 9.7144E-01
-3.1070E+01 9.7150E-01
-3.0236E+01 9.7152E-01
-2.9402E+01 9.7153E-01
-2.8568E+01 9.7155E-01
-2.7735E+01 9.7156E-01
-2.6901E+01 9.7162E-01
-2.6067E+01 9.7161E-01
-2.5233E+01 9.7162E-01
-2.4399E+01 9.7163E-01
-2.3565E+01 9.7165E-01
-2.2731E+01 9.7168E-01
-2.1897E+01 9.7170E-01
-2.1063E+01 9.7172E-01
-2.0230E+01 9.7172E-01
-1.9396E+01 9.7177E-01
-1.8562E+01 9.7180E-01
-1.7728E+01 9.7181E-01
-1.6894E+01 9.7180E-01
-1.6060E+01 9.7187E-01
-1.5226E+01 9.7189E-01
-1.4392E+01 9.7184E-01
-1.3558E+01 9.7191E-01
-1.2725E+01 9.7193E-01
-1.1891E+01 9.7194E-01
-1.1057E+01 9.7199E-01
-1.0223E+01 9.7197E-01
-9.3890E+00 9.7201E-01
-8.5551E+00 9.7202E-01
-7.7212E+00 9.7207E-01
-6.8873E+00 9.7211E-01
-6.0534E+00 9.7211E-01
-5.2196E+00 9.7213E-01
-4.3857E+00 9.7212E-01
-3.5518E+00 9.7218E-01
-2.7179E+00 9.7219E-01
-1.8840E+00 9.7217E-01
-1.0501E+00 9.7215E-01
-2.1622E-01 9.7218E-01
 6.1766E-01 9.7219E-01
 1.4516E+00 9.7225E-01
 2.2854E+00 9.7230E-01
 3.1193E+00 9.7234E-01
 3.9532E+00 9.7232E-01
 4.7871E+00 9.7236E-01
 5.6210E+00 9.7240E-01
 6.4549E+00 9.7243E-01
 7.2888E+00 9.7246E-01
 8.1227E+00 9.7240E-01
 8.9566E+00 9.7249E-01
 9.7904E+00 9.7245E-01
 1.0624E+01 9.7251E-01
 1.1458E+01 9.7250E-01
 1.2292E+01 9.7251E-01
 1.3126E+01 9.7253E-01
 1.3960E+01 9.7253E-01
 1.4794E+01 9.7260E-01
 1.5628E+01 9.7264E-01
 1.6462E+01 9.7264E-01
 1.7295E+01 9.7265E-01
 1.8129E+01 9.7269E-01
 1.8963E+01 9.7268E-01
 1.9797E+01 9.7272E-01
 2.0631E+01 9.7270E-01
 2.1465E+01 9.7273E-01
 2.2299E+01 9.7276E-01
 2.3133E+01 9.7279E-01
 2.3967E+01 9.7286E-01
 2.4800E+01 9.7286E-01
 2.5634E+01 9.7285E-01
 2.6468E+01 9.7294E-01
 2.7302E+01 9.7292E-01
 2.8136E+01 9.7292E-01
 2.8970E+01 9.7295E-01
 2.9804E+01 9.7297E-01
 3.0638E+01 9.7302E-01
 3.1472E+01 9.7300E-01
 3.2305E+01 9.7300E-01
 3.3139E+01 9.7309E-01
 3.3973E+01 9.7308E-01
 3.4807E+01 9.7308E-01
 3.5641E+01 9.7308E-01
 3.6475E+01 9.7314E-01
 3.7309E+01 9.7311E-01
 3.8143E+01 9.7316E-01
 3.8977E+01 9.7315E-01
 3.9810E+01 9.7322E-01
 4.0644E+01 9.7321E-01
 4.1478E+01 9.7325E-01
 4.2312E+01 9.7328E-01
 4.3146E+01 9.7329E-01
 4.3980E+01 9.7330E-01
 4.4814E+01 9.7334E-01
 4.5648E+01 9.7331E-01
 4.6482E+01 9.7330E-01
 4.7315E+01 9.7342E-01
 4.8149E+01 9.7341E-01
 4.8983E+01 9.7340E-01
 4.9817E+01 9.7345E-01
 5.0651E+01 9.7348E-01
 5.1485E+01 9.7345E-01
 5.2319E+01 9.7351E-01
 5.3153E+01 9.7354E-01
 5.3987E+01 9.7357E-01
 5.4820E+01 9.7356E-01
 5.5654E+01 9.7360E-01
 5.6488E+01 9.7361E-01
 5.7322E+01 9.7364E-01
 5.8156E+01 9.7368E-01
 5.8990E+01 9.7371E-01
 5.9824E+01 9.7371E-01
 6.0658E+01 9.7374E-01
 6.1492E+01 9.7372E-01
 6.2325E+01 9.7372E-01
 6.3159E+01 9.7379E-01
 6.3993E+01 9.7378E-01
 6.4827E+01 9.7376E-01
 6.5661E+01 9.7382E-01
 6.6495E+01 9.7384E-01
 6.7329E+01 9.7386E-01
 6.8163E+01 9.7386E-01
 6.8997E+01 9.7386E-01
 6.9830E+01 9.7388E-01
 7.0664E+01 9.7392E-01
 7.1498E+01 9.7398E-01
 7.2332E+01 9.7403E-01
 7.3166E+01 9.7401E-01
 7.4000E+01 9.7403E-01
 7.4834E+01 9.7404E-01
 7.5668E+01 9.7408E-01
 7.6502E+01 9.7405E-01
 7.7335E+01 9.7410E-01
 7.8169E+01 9.7413E-01
 7.9003E+01 9.7411E-01
 7.9837E+01 9.7420E-01
 8.0671E+01 9.7420E-01
 8.1505E+01 9.7419E-01
 8.2339E+01 9.7425E-01
 8.3173E+01 9.7424E-01
 8.4007E+01 9.7427E-01
 8.4840E+01 9.7428E-01
 8.5674E+01 9.7431E-01
 8.6508E+01 9.7428E-01
 8.7342E+01 9.7431E-01
 8.8176E+01 9.7436E-01
 8.9010E+01 9.7440E-01
 8.9844E+01 9.7444E-01
 9.0678E+01 9.7442E-01
 9.1512E+01 9.7450E-01
 9.2345E+01 9.7450E-01
 9.3179E+01 9.7457E-01
 9.4013E+01 9.7449E-01
 9.4847E+01 9.7456E-01
 9.5681E+01 9.7454E-01
 9.6515E+01 9.7461E-01
 9.7349E+01 9.7457E-01
 9.8183E+01 9.7457E-01
 9.9017E+01 9.7463E-01
 9.9851E+01 9.7466E-01
 1.0068E+02 9.7464E-01
 1.0152E+02 9.7470E-01
 1.0235E+02 9.7472E-01
 1.0319E+02 9.7477E-01
 1.0402E+02 9.7478E-01
 1.0485E+02 9.7476E-01
 1.0569E+02 9.7477E-01
 1.0652E+02 9.7483E-01
 1.0736E+02 9.7487E-01
 1.0819E+02 9.7485E-01
 1.0902E+02 9.7487E-01
 1.0986E+02 9.7493E-01
 1.1069E+02 9.7491E-01
 1.1152E+02 9.7490E-01
 1.1236E+02 9.7496E-01
 1.1319E+02 9.7499E-01
 1.1403E+02 9.7497E-01
 1.1486E+02 9.7506E-01
 1.1569E+02 9.7506E-01
 1.1653E+02 9.7503E-01
 1.1736E+02 9.7508E-01
 1.1820E+02 9.7512E-01
 1.1903E+02 9.7515E-01
 1.1986E+02 9.7512E-01
 1.2070E+02 9.7509E-01
 1.2153E+02 9.7518E-01
 1.2237E+02 9.7519E-01
 1.2320E+02 9.7523E-01
 1.2403E+02 9.7526E-01
 1.2487E+02 9.7529E-01
 1.2570E+02 9.7531E-01
 1.2653E+02 9.7535E-01
 1.2737E+02 9.7533E-01
 1.2820E+02 9.7532E-01
 1.2904E+02 9.7529E-01
 1.2987E+02 9.7539E-01
 1.3070E+02 9.7537E-01
 1.3154E+02 9.7541E-01
 1.3237E+02 9.7546E-01
 1.3321E+02 9.7548E-01
 1.3404E+02 9.7550E-01
 1.3487E+02 9.7553E-01
 1.3571E+02 9.7553E-01
 1.3654E+02 9.7552E-01
 1.3738E+02 9.7555E-01
 1.3821E+02 9.7559E-01
 1.3904E+02 9.7564E-01
 1.3988E+02 9.7563E-01
 1.4071E+02 9.7567E-01
 1.4154E+02 9.7570E-01
 1.4238E+02 9.7566E-01
 1.4321E+02 9.7573E-01
 1.4405E+02 9.7575E-01
 1.4488E+02 9.7574E-01
 1.4571E+02 9.7577E-01
 1.4655E+02 9.7582E-01
 1.4738E+02 9.7579E-01
 1.4822E+02 9.7580E-01
 1.4905E+02 9.7587E-01
 1.4988E+02 9.7583E-01
 1.5072E+02 9.7588E-01
 1.5155E+02 9.7591E-01
 1.5239E+02 9.7594E-01
 1.5322E+02 9.7597E-01
 1.5405E+02 9.7601E-01
 1.5489E+02 9.7598E-01
 1.5572E+02 9.7602E-01
 1.5655E+02 9.7602E-01
 1.5739E+02 9.7601E-01
 1.5822E+02 9.7607E-01
 1.5906E+02 9.7605E-01
 1.5989E+02 9.7609E-01
 1.6072E+02 9.7610E-01
 1.6156E+02 9.7609E-01
 1.6239E+02 9.7615E-01
 1.6323E+02 9.7621E-01
 1.6406E+02 9.7617E-01
 1.6489E+02 9.7618E-01
 1.6573E+02 9.7622E-01
 1.6656E+02 9.7631E-01
