-1.6616E+02 9.8935E-01
-1.6533E+02 9.8936E-01
-1.6449E+02 9.8944E-01
-1.6366E+02 9.8940E-01
-1.6282E+02 9.8943E-01
-1.6199E+02 9.8947E-01
-1.6116E+02 9.8946E-01
-1.6032E+02 9.8954E-01
-1.5949E+02 9.8950E-01
-1.5866E+02 9.8954E-01
-1.5782E+02 9.8955E-01
-1.5699E+02 9.8959E-01
-1.5615E+02 9.8958E-01
-1.5532E+02 9.8961E-01
-1.5449E+02 9.8961E-01
-1.5365E+02 9.8967E-01
-1.5282E+02 9.8968E-01
-1.5198E+02 9.8966E-01
-1.5115E+02 9.8970E-01
-1.5032E+02 9.8972E-01
-1.4948E+02 9.8974E-01
-1.4865E+02 9.8974E-01
-1.4781E+02 9.8977E-01
-1.4698E+02 9.8981E-01
-1.4615E+02 9.8986E-01
-1.4531E+02 9.8990E-01
-1.4448E+02 9.8987E-01
-1.4365E+02 9.8989E-01
-1.4281E+02 9.8986E-01
-1.4198E+02 9.8990E-01
-1.4114E+02 9.8992E-01
-1.4031E+02 9.8995E-01
-1.3948E+02 9.9001E-01
-1.3864E+02 9.9006E-01
-1.3781E+02 9.9002E-01
-1.3697E+02 9.9007E-01
-1.3614E+02 9.9004E-01
-1.3531E+02 9.9009E-01
-1.3447E+02 9.9013E-01
-1.3364E+02 9.9015E-01
-1.3280E+02 9.9015E-01
-1.3197E+02 9.9017E-01
-1.3114E+02 9.9019E-01
-1.3030E+02 9.9022E-01
-1.2947E+02 9.9022E-01
-1.2864E+02 9.9029E-01
-1.2780E+02 9.9025E-01
-1.2697E+02 9.9035E-01
-1.2613E+02 9.9035E-01
-1.2530E+02 9.9036E-01
-1.2447E+02 9.9037E-01
-1.2363E+02 9.9038E-01
-1.2280E+02 9.9037E-01
-1.2196E+02 9.9046E-01
-1.2113E+02 9.9050E-01
-1.2030E+02 9.9050E-01
-1.1946E+02 9.9049E-01
-1.1863E+02 9.9052E-01
-1.1779E+02 9.9056E-01
-1.1696E+02 9.9049E-01
-1.1613E+02 9.9053E-01
-1.1529E+02 9.9058E-01
-1.1446E+02 9.9057E-01
-1.1363E+02 9.9057E-01
-1.1279E+02 9.9066E-01
-1.1196E+02 9.9069E-01
-1.1112E+02 9.9068E-01
-1.1029E+02 9.9071E-01
-1.0946E+02 9.9072E-01
-1.0862E+02 9.9075E-01
-1.0779E+02 9.9075E-01
-1.0695E+02 9.9080E-01
-1.0612E+02 9.9077E-01
-1.0529E+02 9.9082E-01
-1.0445E+02 9.9088E-01
-1.0362E+02 9.9088E-01
-1.0278E+02 9.9089E-01
-1.0195E+02 9.9086E-01
-1.0112E+02 9.9094E-01
-1.0028E+02 9.9095E-01
-9.9449E+01 9.9101E-01
-9.8615E+01 9.9101E-01
-9.7781E+01 9.9107E-01
-9.6947E+01 9.9099E-01
-9.6114E+01 9.9104E-01
-9.5280E+01 9.9107E-01
-9.4446E+01 9.9112E-01
-9.3612E+01 9.9109E-01
-9.2778E+01 9.9109E-01
-9.1944E+01 9.9114E-01
-9.1110E+01 9.9116E-01
-9.0276E+01 9.9116E-01
-8.9442E+01 9.9122E-01
-8.8608E+01 9.9122E-01
-8.7775E+01 9.9127E-01
-8.6941E+01 9.9126E-01
-8.6107E+01 9.9129E-01
-8.5273E+01 9.9136E-01
-8.4439E+01 9.9134E-01
-8.3605E+01 9.9135E-01
-8.2771E+01 9.9138E-01
-8.1937E+01 9.9138E-01
-8.1103E+01 9.9143E-01
-8.0270E+01 9.9144E-01
-7.9436E+01 9.9145E-01
-7.8602E+01 9.9145E-01
-7.7768E+01 9.9148E-01
-7.6934E+01 9.9154E-01
-7.6100E+01 9.9154E-01
-7.5266E+01 9.9157E-01
-7.4432E+01 9.9160E-01
-7.3598E+01 9.9160E-01
-7.2765E+01 9.9163E-01
-7.1931E+01 9.9162E-01
-7.1097E+01 9.9164E-01
-7.0263E+01 9.9170E-01
-6.9429E+01 9.9174E-01
-6.8595E+01 9.9170E-01
-6.7761E+01 9.9175E-01
-6.6927E+01 9.9178E-01
-6.6093E+01 9.9175E-01
-6.5260E+01 9.9182E-01
-6.4426E+01 9.9188E-01
-6.3592E+01 9.9185E-01
-6.2758E+01 9.9188E-01
-6.1924E+01 9.9192E-01
-6.1090E+01 9.9191E-01
-6.0256E+01 9.9195E-01
-5.9422E+01 9.9192E-01
-5.8588E+01 9.9198E-01
-5.7755E+01 9.9199E-01
-5.6921E+01 9.9201E-01
-5.6087E+01 9.9200E-01
-5.5253E+01 9.9206E-01
-5.4419E+01 9.9206E-01
-5.3585E+01 9.9207E-01
-5.2751E+01 9.9211E-01
-5.1917E+01 9.9208E-01
-5.1083E+01 9.9210E-01
-5.0250E+01 9.9220E-01
-4.9416E+01 9.9209E-01
-4.8582E+01 9.9225E-01
-4.7748E+01 9.9223E-01
-4.6914E+01 9.9224E-01
-4.6080E+01 9.9224E-01
-4.5246E+01 9.9229E-01
-4.4412E+01 9.9232E-01
-4.3578E+01 9.9232E-01
-4.2745E+01 9.9235E-01
-4.1911E+01 9.9238E-01
-4.1077E+01 9.9239E-01
-4.0243E+01 9.9237E-01
-3.9409E+01 9.9241E-01
-3.8575E+01 9.9243E-01
-3.7741E+01 9.9249E-01
-3.6907E+01 9.9251E-01
-3.6073E+01 9.9247E-01
-3.5240E+01 9.9255E-01
-3.4406E+01 9.9250E-01
-3.3572E+01 9.9263E-01
-3.2738E+01 9.9259E-01
-3.1904E+01 9.9258E-01
-3.1070E+01 9.9263E-01
-3.0236E+01 9.9264E-01
-2.9402E+01 9.9269E-01
-2.8568E+01 9.9267E-01
-2.7735E+01 9.9271E-01
-2.6901E+01 9.9275E-01
-2.6067E+01 9.9273E-01
-2.5233E+01 9.9274E-01
-2.4399E+01 9.9279E-01
-2.3565E+01 9.9283E-01
-2.2731E+01 9.9285E-01
-2.1897E+01 9.9287E-01
-2.1063E+01 9.9289E-01
-2.0230E+01 9.9292E-01
-1.9396E+01 9.9290E-01
-1.8562E+01 9.9296E-01
-1.7728E+01 9.9300E-01
-1.6894E+01 9.9300E-01
-1.6060E+01 9.9298E-01
-1.5226E+01 9.9299E-01
-1.4392E+01 9.9302E-01
-1.3558E+01 9.9298E-01
-1.2725E+01 9.9302E-01
-1.1891E+01 9.9307E-01
-1.1057E+01 9.9309E-01
-1.0223E+01 9.9306E-01
-9.3890E+00 9.9317E-01
-8.5551E+00 9.9318E-01
-7.7212E+00 9.9319E-01
-6.8873E+00 9.9324E-01
-6.0534E+00 9.9324E-01
-5.2196E+00 9.9326E-01
-4.3857E+00 9.9328E-01
-3.5518E+00 9.9331E-01
-2.7179E+00 9.9333E-01
-1.8840E+00 9.9333E-01
-1.0501E+00 9.9334E-01
-2.1622E-01 9.9336E-01
 6.1766E-01 9.9336E-01
 1.4516E+00 9.9341E-01
 2.2854E+00 9.9345E-01
 3.1193E+00 9.9348E-01
 3.9532E+00 9.9346E-01
 4.7871E+00 9.9351E-01
 5.6210E+00 9.9352E-01
 6.4549E+00 9.9354E-01
 7.2888E+00 9.9355E-01
 8.1227E+00 9.9360E-01
 8.9566E+00 9.9361E-01
 9.7904E+00 9.9356E-01
 1.0624E+01 9.9362E-01
 1.1458E+01 9.9364E-01
 1.2292E+01 9.9365E-01
 1.3126E+01 9.9365E-01
 1.3960E+01 9.9367E-01
 1.4794E+01 9.9373E-01
 1.5628E+01 9.9379E-01
 1.6462E+01 9.9378E-01
 1.7295E+01 9.9381E-01
 1.8129E+01 9.9383E-01
 1.8963E+01 9.9389E-01
 1.9797E+01 9.9389E-01
 2.0631E+01 9.9387E-01
 2.1465E+01 9.9391E-01
 2.2299E+01 9.9397E-01
 2.3133E+01 9.9394E-01
 2.3967E+01 9.9395E-01
 2.4800E+01 9.9399E-01
 2.5634E+01 9.9398E-01
 2.6468E+01 9.9406E-01
 2.7302E+01 9.9401E-01
 2.8136E+01 9.9406E-01
 2.8970E+01 9.9409E-01
 2.9804E+01 9.9410E-01
 3.0638E+01 9.9412E-01
 3.1472E+01 9.9416E-01
 3.2305E+01 9.9414E-01
 3.3139E+01 9.9413E-01
 3.3973E+01 9.9422E-01
 3.4807E+01 9.9420E-01
 3.5641E+01 9.9425E-01
 3.6475E+01 9.9423E-01
 3.7309E+01 9.9428E-01
 3.8143E+01 9.9434E-01
 3.8977E+01 9.9436E-01
 3.9810E+01 9.9435E-01
 4.0644E+01 9.9438E-01
 4.1478E+01 9.9438E-01
 4.2312E+01 9.9443E-01
 4.3146E+01 9.9441E-01
 4.3980E+01 9.9442E-01
 4.4814E+01 9.9444E-01
 4.5648E+01 9.9448E-01
 4.6482E+01 9.9451E-01
 4.7315E+01 9.9452E-01
 4.8149E+01 9.9456E-01
 4.8983E+01 9.9453E-01
 4.9817E+01 9.9466E-01
 5.0651E+01 9.9458E-01
 5.1485E+01 9.9458E-01
 5.2319E+01 9.9464E-01
 5.3153E+01 9.9470E-01
 5.3987E+01 9.9469E-01
 5.4820E+01 9.9472E-01
 5.5654E+01 9.9476E-01
 5.6488E+01 9.9475E-01
 5.7322E+01 9.9483E-01
 5.8156E+01 9.9479E-01
 5.8990E+01 9.9479E-01
 5.9824E+01 9.9485E-01
 6.0658E+01 9.9479E-01
 6.1492E+01 9.9486E-01
 6.2325E+01 9.9492E-01
 6.3159E+01 9.9491E-01
 6.3993E+01 9.9492E-01
 6.4827E+01 9.9493E-01
 6.5661E+01 9.9499E-01
 6.6495E+01 9.9497E-01
 6.7329E+01 9.9499E-01
 6.8163E+01 9.9502E-01
 6.8997E+01 9.9500E-01
 6.9830E+01 9.9515E-01
 7.0664E+01 9.9507E-01
 7.1498E+01 9.9513E-01
 7.2332E+01 9.9512E-01
 7.3166E+01 9.9518E-01
 7.4000E+01 9.9517E-01
 7.4834E+01 9.9521E-01
 7.5668E+01 9.9520E-01
 7.6502E+01 9.9520E-01
 7.7335E+01 9.9522E-01
 7.8169E+01 9.9530E-01
 7.9003E+01 9.9525E-01
 7.9837E+01 9.9535E-01
 8.0671E+01 9.9531E-01
 8.1505E+01 9.9533E-01
 8.2339E+01 9.9539E-01
 8.3173E+01 9.9536E-01
 8.4007E+01 9.9543E-01
 8.4840E+01 9.9536E-01
 8.5674E+01 9.9537E-01
 8.6508E+01 9.9541E-01
 8.7342E+01 9.9549E-01
 8.8176E+01 9.9552E-01
 8.9010E+01 9.9556E-01
 8.9844E+01 9.9555E-01
 9.0678E+01 9.9558E-01
 9.1512E+01 9.9560E-01
 9.2345E+01 9.9564E-01
 9.3179E+01 9.9569E-01
 9.4013E+01 9.9565E-01
 9.4847E+01 9.9566E-01
 9.5681E+01 9.9571E-01
 9.6515E+01 9.9571E-01
 9.7349E+01 9.9575E-01
 9.8183E+01 9.9571E-01
 9.9017E+01 9.9577E-01
 9.9851E+01 9.9579E-01
 1.0068E+02 9.9580E-01
 1.0152E+02 9.9587E-01
 1.0235E+02 9.9586E-01
 1.0319E+02 9.9588E-01
 1.0402E+02 9.9593E-01
 1.0485E+02 9.9590E-01
 1.0569E+02 9.9593E-01
 1.0652E+02 9.9596E-01
 1.0736E+02 9.9598E-01
 1.0819E+02 9.9600E-01
 1.0902E+02 9.9603E-01
 1.0986E+02 9.9606E-01
 1.1069E+02 9.9604E-01
 1.1152E+02 9.9611E-01
 1.1236E+02 9.9605E-01
 1.1319E+02 9.9613E-01
 1.1403E+02 9.9615E-01
 1.1486E+02 9.9618E-01
 1.1569E+02 9.9616E-01
 1.1653E+02 9.9623E-01
 1.1736E+02 9.9621E-01
 1.1820E+02 9.9624E-01
 1.1903E+02 9.9629E-01
 1.1986E+02 9.9627E-01
 1.2070E+02 9.9629E-01
 1.2153E+02 9.9636E-01
 1.2237E+02 9.9629E-01
 1.2320E+02 9.9634E-01
 1.2403E+02 9.9636E-01
 1.2487E+02 9.9640E-01
 1.2570E+02 9.9648E-01
 1.2653E+02 9.9645E-01
 1.2737E+02 9.9641E-01
 1.2820E+02 9.9649E-01
 1.2904E+02 9.9649E-01
 1.2987E+02 9.9656E-01
 1.3070E+02 9.9650E-01
 1.3154E+02 9.9648E-01
 1.3237E+02 9.9660E-01
 1.3321E+02 9.9659E-01
 1.3404E+02 9.9664E-01
 1.3487E+02 9.9663E-01
 1.3571E+02 9.9659E-01
 1.3654E+02 9.9665E-01
 1.3738E+02 9.9672E-01
 1.3821E+02 9.9670E-01
 1.3904E+02 9.9676E-01
 1.3988E+02 9.9679E-01
 1.4071E+02 9.9678E-01
 1.4154E+02 9.9680E-01
 1.4238E+02 9.9684E-01
 1.4321E+02 9.9684E-01
 1.4405E+02 9.9679E-01
 1.4488E+02 9.9683E-01
 1.4571E+02 9.9694E-01
 1.4655E+02 9.9689E-01
 1.4738E+02 9.9696E-01
 1.4822E+02 9.9695E-01
 1.4905E+02 9.9693E-01
 1.4988E+02 9.9704E-01
 1.5072E+02 9.9703E-01
 1.5155E+02 9.9706E-01
 1.5239E+02 9.9705E-01
 1.5322E+02 9.9713E-01
 1.5405E+02 9.9707E-01
 1.5489E+02 9.9711E-01
 1.5572E+02 9.9714E-01
 1.5655E+02 9.9716E-01
 1.5739E+02 9.9722E-01
 1.5822E+02 9.9721E-01
 1.5906E+02 9.9726E-01
 1.5989E+02 9.9725E-01
 1.6072E+02 9.9721E-01
 1.6156E+02 9.9729E-01
 1.6239E+02 9.9730E-01
 1.6323E+02 9.9734E-01
 1.6406E+02 9.9735E-01
 1.6489E+02 9.9739E-01
 1.6573E+02 9.9739E-01
 1.6656E+02 9.9740E-01
