 6.0250E+03 0.0000E+00
 6.0500E+03 1.2721E-18
 6.0750E+03 1.1109E-18
 6.1000E+03 1.0789E-18
 6.1250E+03 1.1649E-18
 6.1500E+03 1.0250E-18
 6.1750E+03 1.2441E-18
 6.2000E+03 1.2368E-18
 6.2250E+03 1.3021E-18
 6.2500E+03 1.2035E-18
 6.2750E+03 1.0030E-18
 6.3000E+03 1.0696E-18
 6.3250E+03 1.0903E-18
 6.3500E+03 1.0536E-18
 6.3750E+03 1.1702E-18
 6.4000E+03 1.2015E-18
 6.4250E+03 1.0670E-18
 6.4500E+03 1.0417E-18
 6.4750E+03 1.1116E-18
 6.5000E+03 9.7705E-19
 6.5250E+03 1.1249E-18
 6.5500E+03 1.0203E-18
 6.5750E+03 1.1069E-18
 6.6000E+03 1.0443E-18
 6.6250E+03 1.2121E-18
 6.6500E+03 8.7648E-19
 6.6750E+03 1.2055E-18
 6.7000E+03 8.9979E-19
 6.7250E+03 1.0110E-18
 6.7500E+03 1.0616E-18
 6.7750E+03 1.1296E-18
 6.8000E+03 9.7705E-19
 6.8250E+03 7.9323E-19
 6.8500E+03 1.0163E-18
 6.8750E+03 8.7581E-19
 6.9000E+03 9.0978E-19
 6.9250E+03 1.0476E-18
 6.9500E+03 1.0523E-18
 6.9750E+03 1.0530E-18
 7.0000E+03 1.1162E-18
 7.0250E+03 1.0010E-18
 7.0500E+03 1.1740E-06
 7.0750E+03 1.1754E-06
 7.1000E+03 1.1768E-06
 7.1250E+03 1.1782E-06
 7.1500E+03 1.1796E-06
 7.1750E+03 1.1809E-06
 7.2000E+03 1.1823E-06
 7.2250E+03 1.1837E-06
 7.2500E+03 1.1851E-06
 7.2750E+03 1.1865E-06
 7.3000E+03 1.1879E-06
 7.3250E+03 1.1892E-06
 7.3500E+03 1.1906E-06
 7.3750E+03 1.1920E-06
 7.4000E+03 1.1934E-06
 7.4250E+03 1.1947E-06
 7.4500E+03 1.1961E-06
 7.4750E+03 1.1974E-06
 7.5000E+03 1.1988E-06
 7.5250E+03 1.2002E-06
 7.5500E+03 1.2015E-06
 7.5750E+03 1.2029E-06
 7.6000E+03 1.2042E-06
 7.6250E+03 1.2056E-06
 7.6500E+03 1.2069E-06
 7.6750E+03 1.2083E-06
 7.7000E+03 1.2096E-06
 7.7250E+03 1.2110E-06
 7.7500E+03 1.2123E-06
 7.7750E+03 1.2137E-06
 7.8000E+03 1.2150E-06
 7.8250E+03 1.2164E-06
 7.8500E+03 1.2177E-06
 7.8750E+03 1.2191E-06
 7.9000E+03 1.2204E-06
 7.9250E+03 1.2217E-06
 7.9500E+03 1.2231E-06
 7.9750E+03 1.2245E-06
 8.0000E+03 1.2258E-06
 8.0250E+03 1.2272E-06
 8.0500E+03 1.2285E-06
 8.0750E+03 1.2298E-06
 8.1000E+03 1.2312E-06
 8.1250E+03 1.2326E-06
 8.1500E+03 1.2339E-06
 8.1750E+03 1.2353E-06
 8.2000E+03 1.2366E-06
 8.2250E+03 1.2380E-06
 8.2500E+03 1.2394E-06
 8.2750E+03 1.2407E-06
 8.3000E+03 1.2421E-06
 8.3250E+03 1.2435E-06
 8.3500E+03 1.2449E-06
 8.3750E+03 1.2462E-06
 8.4000E+03 1.2476E-06
 8.4250E+03 1.2490E-06
 8.4500E+03 1.2504E-06
 8.4750E+03 1.2518E-06
 8.5000E+03 1.2532E-06
 8.5250E+03 1.2546E-06
 8.5500E+03 1.2560E-06
 8.5750E+03 1.2574E-06
 8.6000E+03 1.2588E-06
 8.6250E+03 1.2602E-06
 8.6500E+03 1.2616E-06
 8.6750E+03 1.2631E-06
 8.7000E+03 1.2645E-06
 8.7250E+03 1.2659E-06
 8.7500E+03 1.2674E-06
 8.7750E+03 1.2688E-06
 8.8000E+03 1.2703E-06
 8.8250E+03 1.2717E-06
 8.8500E+03 1.2732E-06
 8.8750E+03 1.2746E-06
 8.9000E+03 1.2761E-06
 8.9250E+03 1.2776E-06
 8.9500E+03 1.2791E-06
 8.9750E+03 1.2806E-06
 9.0000E+03 1.2820E-06
 9.0250E+03 1.2835E-06
 9.0500E+03 1.2850E-06
 9.0750E+03 1.2866E-06
 9.1000E+03 1.2881E-06
 9.1250E+03 1.2896E-06
 9.1500E+03 1.2911E-06
 9.1750E+03 1.2927E-06
 9.2000E+03 1.2942E-06
 9.2250E+03 1.2958E-06
 9.2500E+03 1.2973E-06
 9.2750E+03 1.2989E-06
 9.3000E+03 1.3005E-06
 9.3250E+03 1.3021E-06
 9.3500E+03 1.3036E-06
 9.3750E+03 1.3052E-06
 9.4000E+03 1.3068E-06
 9.4250E+03 1.3084E-06
 9.4500E+03 1.3100E-06
 9.4750E+03 1.3116E-06
 9.5000E+03 1.3133E-06
 9.5250E+03 1.3149E-06
 9.5500E+03 1.3165E-06
 9.5750E+03 1.3182E-06
 9.6000E+03 1.3198E-06
 9.6250E+03 1.3215E-06
 9.6500E+03 1.3231E-06
 9.6750E+03 1.3248E-06
 9.7000E+03 1.3265E-06
 9.7250E+03 1.3282E-06
 9.7500E+03 1.3299E-06
 9.7750E+03 1.3316E-06
 9.8000E+03 1.3333E-06
 9.8250E+03 1.3350E-06
 9.8500E+03 1.3367E-06
 9.8750E+03 1.3384E-06
 9.9000E+03 1.3402E-06
 9.9250E+03 1.3419E-06
 9.9500E+03 1.3437E-06
 9.9750E+03 1.3454E-06
 1.0000E+04 1.3472E-06
 1.0025E+04 5.6678E-19
 1.0050E+04 5.9009E-19
 1.0075E+04 5.9675E-19
 1.0100E+04 6.2339E-19
 1.0125E+04 6.2006E-19
 1.0150E+04 7.0464E-19
 1.0175E+04 6.1540E-19
 1.0200E+04 6.3005E-19
 1.0225E+04 5.8809E-19
 1.0250E+04 5.7810E-19
 1.0275E+04 5.9941E-19
 1.0300E+04 4.9751E-19
 1.0325E+04 5.5879E-19
 1.0350E+04 4.9019E-19
 1.0375E+04 4.9951E-19
 1.0400E+04 5.0151E-19
 1.0425E+04 5.1749E-19
 1.0450E+04 5.6212E-19
 1.0475E+04 5.6678E-19
 1.0500E+04 5.7411E-19
 1.0525E+04 5.9475E-19
 1.0550E+04 5.8010E-19
 1.0575E+04 6.4537E-19
 1.0600E+04 5.7411E-19
 1.0625E+04 6.0341E-19
 1.0650E+04 6.0008E-19
 1.0675E+04 5.2549E-19
 1.0700E+04 5.4547E-19
 1.0725E+04 5.0884E-19
 1.0750E+04 5.0018E-19
 1.0775E+04 4.8020E-19
 1.0800E+04 5.4946E-19
 1.0825E+04 4.7087E-19
 1.0850E+04 4.6821E-19
 1.0875E+04 4.7820E-19
 1.0900E+04 5.1616E-19
 1.0925E+04 4.8353E-19
 1.0950E+04 5.5945E-19
 1.0975E+04 5.5879E-19
 1.1000E+04 5.7011E-19
