 7.5125E+03 0.0000E+00
 7.5250E+03 3.9211E-16
 7.5375E+03 3.7960E-16
 7.5500E+03 3.9504E-16
 7.5625E+03 3.8648E-16
 7.5750E+03 3.8087E-16
 7.5875E+03 3.6555E-16
 7.6000E+03 3.8480E-16
 7.6125E+03 3.8813E-16
 7.6250E+03 3.7996E-16
 7.6375E+03 3.7469E-16
 7.6500E+03 3.6695E-16
 7.6625E+03 3.7023E-16
 7.6750E+03 3.7107E-16
 7.6875E+03 3.6452E-16
 7.7000E+03 3.5638E-16
 7.7125E+03 3.6721E-16
 7.7250E+03 3.6328E-16
 7.7375E+03 3.5110E-16
 7.7500E+03 3.5960E-16
 7.7625E+03 3.4254E-16
 7.7750E+03 3.5623E-16
 7.7875E+03 3.3902E-16
 7.8000E+03 3.5275E-16
 7.8125E+03 3.4447E-16
 7.8250E+03 3.5251E-16
 7.8375E+03 3.4696E-16
 7.8500E+03 3.3930E-16
 7.8625E+03 3.4632E-16
 7.8750E+03 3.4700E-16
 7.8875E+03 3.3836E-16
 7.9000E+03 3.3499E-16
 7.9125E+03 3.2644E-16
 7.9250E+03 3.2259E-16
 7.9375E+03 3.1942E-16
 7.9500E+03 3.2873E-16
 7.9625E+03 3.1880E-16
 7.9750E+03 3.1494E-16
 7.9875E+03 3.2289E-16
 8.0000E+03 3.1125E-16
 8.0125E+03 3.2727E-16
 8.0250E+03 7.2606E-05
 8.0375E+03 7.2552E-05
 8.0500E+03 7.2497E-05
 8.0625E+03 7.2442E-05
 8.0750E+03 7.2388E-05
 8.0875E+03 7.2333E-05
 8.1000E+03 7.2278E-05
 8.1125E+03 7.2224E-05
 8.1250E+03 7.2169E-05
 8.1375E+03 7.2115E-05
 8.1500E+03 7.2060E-05
 8.1625E+03 7.2006E-05
 8.1750E+03 7.1951E-05
 8.1875E+03 7.1896E-05
 8.2000E+03 7.1842E-05
 8.2125E+03 7.1787E-05
 8.2250E+03 7.1733E-05
 8.2375E+03 7.1678E-05
 8.2500E+03 7.1624E-05
 8.2625E+03 7.1569E-05
 8.2750E+03 7.1515E-05
 8.2875E+03 7.1461E-05
 8.3000E+03 7.1406E-05
 8.3125E+03 7.1352E-05
 8.3250E+03 7.1297E-05
 8.3375E+03 7.1243E-05
 8.3500E+03 7.1189E-05
 8.3625E+03 7.1134E-05
 8.3750E+03 7.1080E-05
 8.3875E+03 7.1026E-05
 8.4000E+03 7.0971E-05
 8.4125E+03 7.0917E-05
 8.4250E+03 7.0863E-05
 8.4375E+03 7.0809E-05
 8.4500E+03 7.0754E-05
 8.4625E+03 7.0700E-05
 8.4750E+03 7.0646E-05
 8.4875E+03 7.0592E-05
 8.5000E+03 7.0537E-05
 8.5125E+03 7.0483E-05
 8.5250E+03 7.0429E-05
 8.5375E+03 7.0375E-05
 8.5500E+03 7.0321E-05
 8.5625E+03 7.0267E-05
 8.5750E+03 7.0213E-05
 8.5875E+03 7.0159E-05
 8.6000E+03 7.0105E-05
 8.6125E+03 7.0051E-05
 8.6250E+03 6.9997E-05
 8.6375E+03 6.9943E-05
 8.6500E+03 6.9889E-05
 8.6625E+03 6.9835E-05
 8.6750E+03 6.9781E-05
 8.6875E+03 6.9727E-05
 8.7000E+03 6.9673E-05
 8.7125E+03 6.9619E-05
 8.7250E+03 6.9566E-05
 8.7375E+03 6.9512E-05
 8.7500E+03 6.9458E-05
 8.7625E+03 6.9404E-05
 8.7750E+03 6.9351E-05
 8.7875E+03 6.9297E-05
 8.8000E+03 6.9243E-05
 8.8125E+03 6.9189E-05
 8.8250E+03 6.9136E-05
 8.8375E+03 6.9082E-05
 8.8500E+03 6.9028E-05
 8.8625E+03 6.8975E-05
 8.8750E+03 6.8921E-05
 8.8875E+03 6.8868E-05
 8.9000E+03 6.8814E-05
 8.9125E+03 6.8760E-05
 8.9250E+03 6.8707E-05
 8.9375E+03 6.8653E-05
 8.9500E+03 6.8600E-05
 8.9625E+03 6.8546E-05
 8.9750E+03 6.8493E-05
 8.9875E+03 6.8439E-05
 9.0000E+03 6.8386E-05
 9.0125E+03 6.8332E-05
 9.0250E+03 6.8279E-05
 9.0375E+03 6.8226E-05
 9.0500E+03 6.8172E-05
 9.0625E+03 6.8119E-05
 9.0750E+03 6.8066E-05
 9.0875E+03 6.8012E-05
 9.1000E+03 6.7959E-05
 9.1125E+03 6.7906E-05
 9.1250E+03 6.7852E-05
 9.1375E+03 6.7799E-05
 9.1500E+03 6.7746E-05
 9.1625E+03 6.7692E-05
 9.1750E+03 6.7639E-05
 9.1875E+03 6.7586E-05
 9.2000E+03 6.7533E-05
 9.2125E+03 6.7480E-05
 9.2250E+03 6.7427E-05
 9.2375E+03 6.7374E-05
 9.2500E+03 6.7321E-05
 9.2625E+03 6.7267E-05
 9.2750E+03 6.7214E-05
 9.2875E+03 6.7161E-05
 9.3000E+03 6.7108E-05
 9.3125E+03 6.7055E-05
 9.3250E+03 6.7002E-05
 9.3375E+03 6.6949E-05
 9.3500E+03 6.6896E-05
 9.3625E+03 6.6843E-05
 9.3750E+03 6.6790E-05
 9.3875E+03 6.6738E-05
 9.4000E+03 6.6685E-05
 9.4125E+03 6.6632E-05
 9.4250E+03 6.6579E-05
 9.4375E+03 6.6526E-05
 9.4500E+03 6.6474E-05
 9.4625E+03 6.6421E-05
 9.4750E+03 6.6368E-05
 9.4875E+03 6.6315E-05
 9.5000E+03 6.6263E-05
 9.5125E+03 6.6210E-05
 9.5250E+03 1.7527E-16
 9.5375E+03 1.6685E-16
 9.5500E+03 1.6685E-16
 9.5625E+03 1.5716E-16
 9.5750E+03 1.6315E-16
 9.5875E+03 1.5247E-16
 9.6000E+03 1.6633E-16
 9.6125E+03 1.6683E-16
 9.6250E+03 1.6864E-16
 9.6375E+03 1.5179E-16
 9.6500E+03 1.5630E-16
 9.6625E+03 1.6090E-16
 9.6750E+03 1.7141E-16
 9.6875E+03 1.6806E-16
 9.7000E+03 1.5741E-16
 9.7125E+03 1.7298E-16
 9.7250E+03 1.5409E-16
 9.7375E+03 1.5163E-16
 9.7500E+03 1.4251E-16
 9.7625E+03 1.5128E-16
 9.7750E+03 1.6145E-16
 9.7875E+03 1.5322E-16
 9.8000E+03 1.5016E-16
 9.8125E+03 1.4807E-16
 9.8250E+03 1.4826E-16
 9.8375E+03 1.5319E-16
 9.8500E+03 1.4410E-16
 9.8625E+03 1.5521E-16
 9.8750E+03 1.3712E-16
 9.8875E+03 1.3334E-16
 9.9000E+03 1.4307E-16
 9.9125E+03 1.3932E-16
 9.9250E+03 1.4118E-16
 9.9375E+03 1.4952E-16
 9.9500E+03 1.4957E-16
 9.9625E+03 1.3512E-16
 9.9750E+03 1.3521E-16
 9.9875E+03 1.3072E-16
 1.0000E+04 1.4467E-16
