 0.0000E+00 2.8430E-03
 2.8571E-01 2.8427E-03
 5.7143E-01 2.8420E-03
 8.5714E-01 2.8410E-03
 1.1429E+00 2.8395E-03
 1.4286E+00 2.8377E-03
 1.7143E+00 2.8355E-03
 2.0000E+00 2.8329E-03
 2.2857E+00 2.8299E-03
 2.5714E+00 2.8266E-03
 2.8571E+00 2.8228E-03
 3.1429E+00 2.8188E-03
 3.4286E+00 2.8143E-03
 3.7143E+00 2.8094E-03
 4.0000E+00 2.8042E-03
 4.2857E+00 2.7986E-03
 4.5714E+00 2.7926E-03
 4.8571E+00 2.7863E-03
 5.1429E+00 2.7796E-03
 5.4286E+00 2.7726E-03
 5.7143E+00 2.7651E-03
 6.0000E+00 2.7574E-03
 6.2857E+00 2.7492E-03
 6.5714E+00 2.7408E-03
 6.8571E+00 2.7319E-03
 7.1429E+00 2.7227E-03
 7.4286E+00 2.7132E-03
 7.7143E+00 2.7033E-03
 8.0000E+00 2.6931E-03
 8.2857E+00 2.6826E-03
 8.5714E+00 2.6717E-03
 8.8571E+00 2.6605E-03
 9.1429E+00 2.6490E-03
 9.4286E+00 2.6373E-03
 9.7143E+00 2.6252E-03
 1.0000E+01 2.6128E-03
 1.0286E+01 2.6001E-03
 1.0571E+01 2.5871E-03
 1.0857E+01 2.5738E-03
 1.1143E+01 2.5603E-03
 1.1429E+01 2.5465E-03
 1.1714E+01 2.5324E-03
 1.2000E+01 2.5180E-03
 1.2286E+01 2.5034E-03
 1.2571E+01 2.4885E-03
 1.2857E+01 2.4734E-03
 1.3143E+01 2.4580E-03
 1.3429E+01 2.4424E-03
 1.3714E+01 2.4265E-03
 1.4000E+01 2.4105E-03
 1.4286E+01 2.3942E-03
 1.4571E+01 2.3777E-03
 1.4857E+01 2.3610E-03
 1.5143E+01 2.3441E-03
 1.5429E+01 2.3270E-03
 1.5714E+01 2.3097E-03
 1.6000E+01 2.2923E-03
 1.6286E+01 2.2747E-03
 1.6571E+01 2.2568E-03
 1.6857E+01 2.2389E-03
 1.7143E+01 2.2207E-03
 1.7429E+01 2.2024E-03
 1.7714E+01 2.1840E-03
 1.8000E+01 2.1654E-03
 1.8286E+01 2.1467E-03
 1.8571E+01 2.1279E-03
 1.8857E+01 2.1089E-03
 1.9143E+01 2.0898E-03
 1.9429E+01 2.0706E-03
 1.9714E+01 2.0513E-03
 2.0000E+01 2.0319E-03
 2.0286E+01 2.0125E-03
 2.0571E+01 1.9929E-03
 2.0857E+01 1.9732E-03
 2.1143E+01 1.9535E-03
 2.1429E+01 1.9337E-03
 2.1714E+01 1.9139E-03
 2.2000E+01 1.8940E-03
 2.2286E+01 1.8740E-03
 2.2571E+01 1.8540E-03
 2.2857E+01 1.8340E-03
 2.3143E+01 1.8139E-03
 2.3429E+01 1.7939E-03
 2.3714E+01 1.7737E-03
 2.4000E+01 1.7536E-03
 2.4286E+01 1.7335E-03
 2.4571E+01 1.7133E-03
 2.4857E+01 1.6932E-03
 2.5143E+01 1.6731E-03
 2.5429E+01 1.6530E-03
 2.5714E+01 1.6329E-03
 2.6000E+01 1.6128E-03
 2.6286E+01 1.5928E-03
 2.6571E+01 1.5728E-03
 2.6857E+01 1.5528E-03
 2.7143E+01 1.5329E-03
 2.7429E+01 1.5130E-03
 2.7714E+01 1.4932E-03
 2.8000E+01 1.4734E-03
 2.8286E+01 1.4537E-03
 2.8571E+01 1.4341E-03
 2.8857E+01 1.4145E-03
 2.9143E+01 1.3950E-03
 2.9429E+01 1.3756E-03
 2.9714E+01 1.3563E-03
 3.0000E+01 1.3371E-03
 3.0286E+01 1.3179E-03
 3.0571E+01 1.2989E-03
 3.0857E+01 1.2799E-03
 3.1143E+01 1.2611E-03
 3.1429E+01 1.2424E-03
 3.1714E+01 1.2237E-03
 3.2000E+01 1.2052E-03
 3.2286E+01 1.1869E-03
 3.2571E+01 1.1686E-03
 3.2857E+01 1.1504E-03
 3.3143E+01 1.1324E-03
 3.3429E+01 1.1145E-03
 3.3714E+01 1.0968E-03
 3.4000E+01 1.0791E-03
 3.4286E+01 1.0617E-03
 3.4571E+01 1.0443E-03
 3.4857E+01 1.0271E-03
 3.5143E+01 1.0101E-03
 3.5429E+01 9.9314E-04
 3.5714E+01 9.7638E-04
 3.6000E+01 9.5977E-04
 3.6286E+01 9.4332E-04
 3.6571E+01 9.2702E-04
 3.6857E+01 9.1088E-04
 3.7143E+01 8.9489E-04
 3.7429E+01 8.7907E-04
 3.7714E+01 8.6341E-04
 3.8000E+01 8.4790E-04
 3.8286E+01 8.3256E-04
 3.8571E+01 8.1739E-04
 3.8857E+01 8.0239E-04
 3.9143E+01 7.8755E-04
 3.9429E+01 7.7288E-04
 3.9714E+01 7.5838E-04
 4.0000E+01 7.4405E-04
 4.0286E+01 7.2989E-04
 4.0571E+01 7.1590E-04
 4.0857E+01 7.0209E-04
 4.1143E+01 6.8845E-04
 4.1429E+01 6.7498E-04
 4.1714E+01 6.6169E-04
 4.2000E+01 6.4856E-04
 4.2286E+01 6.3561E-04
 4.2571E+01 6.2284E-04
 4.2857E+01 6.1024E-04
 4.3143E+01 5.9781E-04
 4.3429E+01 5.8555E-04
 4.3714E+01 5.7348E-04
 4.4000E+01 5.6156E-04
 4.4286E+01 5.4983E-04
 4.4571E+01 5.3826E-04
 4.4857E+01 5.2686E-04
 4.5143E+01 5.1564E-04
 4.5429E+01 5.0459E-04
 4.5714E+01 4.9370E-04
 4.6000E+01 4.8299E-04
 4.6286E+01 4.7244E-04
 4.6571E+01 4.6206E-04
 4.6857E+01 4.5185E-04
 4.7143E+01 4.4179E-04
 4.7429E+01 4.3191E-04
 4.7714E+01 4.2219E-04
 4.8000E+01 4.1263E-04
 4.8286E+01 4.0323E-04
 4.8571E+01 3.9399E-04
 4.8857E+01 3.8491E-04
 4.9143E+01 3.7599E-04
 4.9429E+01 3.6723E-04
 4.9714E+01 3.5862E-04
 5.0000E+01 3.5016E-04
 5.0286E+01 3.4186E-04
 5.0571E+01 3.3371E-04
 5.0857E+01 3.2571E-04
 5.1143E+01 3.1786E-04
 5.1429E+01 3.1015E-04
 5.1714E+01 3.0259E-04
 5.2000E+01 2.9518E-04
 5.2286E+01 2.8790E-04
 5.2571E+01 2.8077E-04
 5.2857E+01 2.7377E-04
 5.3143E+01 2.6692E-04
 5.3429E+01 2.6020E-04
 5.3714E+01 2.5361E-04
 5.4000E+01 2.4716E-04
 5.4286E+01 2.4084E-04
 5.4571E+01 2.3465E-04
 5.4857E+01 2.2859E-04
 5.5143E+01 2.2265E-04
 5.5429E+01 2.1684E-04
 5.5714E+01 2.1115E-04
 5.6000E+01 2.0558E-04
 5.6286E+01 2.0013E-04
 5.6571E+01 1.9480E-04
 5.6857E+01 1.8959E-04
 5.7143E+01 1.8449E-04
 5.7429E+01 1.7950E-04
 5.7714E+01 1.7462E-04
 5.8000E+01 1.6986E-04
 5.8286E+01 1.6519E-04
 5.8571E+01 1.6064E-04
 5.8857E+01 1.5619E-04
 5.9143E+01 1.5184E-04
 5.9429E+01 1.4760E-04
 5.9714E+01 1.4345E-04
 6.0000E+01 1.3940E-04
 6.0286E+01 1.3544E-04
 6.0571E+01 1.3158E-04
 6.0857E+01 1.2781E-04
 6.1143E+01 1.2414E-04
 6.1429E+01 1.2055E-04
 6.1714E+01 1.1705E-04
 6.2000E+01 1.1363E-04
 6.2286E+01 1.1031E-04
 6.2571E+01 1.0706E-04
 6.2857E+01 1.0389E-04
 6.3143E+01 1.0081E-04
 6.3429E+01 9.7799E-05
 6.3714E+01 9.4868E-05
 6.4000E+01 9.2014E-05
 6.4286E+01 8.9233E-05
 6.4571E+01 8.6524E-05
 6.4857E+01 8.3886E-05
 6.5143E+01 8.1317E-05
 6.5429E+01 7.8815E-05
 6.5714E+01 7.6380E-05
 6.6000E+01 7.4010E-05
 6.6286E+01 7.1703E-05
 6.6571E+01 6.9459E-05
 6.6857E+01 6.7277E-05
 6.7143E+01 6.5154E-05
 6.7429E+01 6.3091E-05
 6.7714E+01 6.1083E-05
 6.8000E+01 5.9131E-05
 6.8286E+01 5.7234E-05
 6.8571E+01 5.5391E-05
 6.8857E+01 5.3599E-05
 6.9143E+01 5.1859E-05
 6.9429E+01 5.0168E-05
 6.9714E+01 4.8526E-05
 7.0000E+01 4.6931E-05
 7.0286E+01 4.5382E-05
 7.0571E+01 4.3878E-05
 7.0857E+01 4.2419E-05
 7.1143E+01 4.1002E-05
 7.1429E+01 3.9627E-05
 7.1714E+01 3.8293E-05
 7.2000E+01 3.6998E-05
 7.2286E+01 3.5743E-05
 7.2571E+01 3.4524E-05
 7.2857E+01 3.3344E-05
 7.3143E+01 3.2199E-05
 7.3429E+01 3.1089E-05
 7.3714E+01 3.0013E-05
 7.4000E+01 2.8971E-05
 7.4286E+01 2.7961E-05
 7.4571E+01 2.6983E-05
 7.4857E+01 2.6035E-05
 7.5143E+01 2.5117E-05
 7.5429E+01 2.4228E-05
 7.5714E+01 2.3367E-05
 7.6000E+01 2.2534E-05
 7.6286E+01 2.1728E-05
 7.6571E+01 2.0948E-05
 7.6857E+01 2.0192E-05
 7.7143E+01 1.9462E-05
 7.7429E+01 1.8756E-05
 7.7714E+01 1.8072E-05
 7.8000E+01 1.7412E-05
 7.8286E+01 1.6772E-05
 7.8571E+01 1.6155E-05
 7.8857E+01 1.5557E-05
 7.9143E+01 1.4981E-05
 7.9429E+01 1.4423E-05
 7.9714E+01 1.3884E-05
 8.0000E+01 1.3364E-05
 8.0286E+01 1.2861E-05
 8.0571E+01 1.2376E-05
 8.0857E+01 1.1907E-05
 8.1143E+01 1.1455E-05
 8.1429E+01 1.1017E-05
 8.1714E+01 1.0596E-05
 8.2000E+01 1.0188E-05
 8.2286E+01 9.7961E-06
 8.2571E+01 9.4168E-06
 8.2857E+01 9.0516E-06
 8.3143E+01 8.6991E-06
 8.3429E+01 8.3593E-06
 8.3714E+01 8.0315E-06
 8.4000E+01 7.7154E-06
 8.4286E+01 7.4111E-06
 8.4571E+01 7.1173E-06
 8.4857E+01 6.8344E-06
 8.5143E+01 6.5619E-06
 8.5429E+01 6.2993E-06
 8.5714E+01 6.0466E-06
 8.6000E+01 5.8030E-06
 8.6286E+01 5.5685E-06
 8.6571E+01 5.3427E-06
 8.6857E+01 5.1256E-06
 8.7143E+01 4.9168E-06
 8.7429E+01 4.7157E-06
 8.7714E+01 4.5222E-06
 8.8000E+01 4.3360E-06
 8.8286E+01 4.1572E-06
 8.8571E+01 3.9850E-06
 8.8857E+01 3.8195E-06
 8.9143E+01 3.6604E-06
 8.9429E+01 3.5073E-06
 8.9714E+01 3.3600E-06
 9.0000E+01 3.2187E-06
 9.0286E+01 3.0828E-06
 9.0571E+01 2.9522E-06
 9.0857E+01 2.8269E-06
 9.1143E+01 2.7064E-06
 9.1429E+01 2.5907E-06
 9.1714E+01 2.4797E-06
 9.2000E+01 2.3731E-06
 9.2286E+01 2.2706E-06
 9.2571E+01 2.1724E-06
 9.2857E+01 2.0781E-06
 9.3143E+01 1.9876E-06
 9.3429E+01 1.9009E-06
 9.3714E+01 1.8177E-06
 9.4000E+01 1.7379E-06
 9.4286E+01 1.6613E-06
 9.4571E+01 1.5880E-06
 9.4857E+01 1.5174E-06
 9.5143E+01 1.4500E-06
 9.5429E+01 1.3853E-06
 9.5714E+01 1.3234E-06
 9.6000E+01 1.2640E-06
 9.6286E+01 1.2071E-06
 9.6571E+01 1.1527E-06
 9.6857E+01 1.1005E-06
 9.7143E+01 1.0506E-06
 9.7429E+01 1.0028E-06
 9.7714E+01 9.5708E-07
 9.8000E+01 9.1334E-07
 9.8286E+01 8.7145E-07
 9.8571E+01 8.3136E-07
 9.8857E+01 7.9297E-07
 9.9143E+01 7.5632E-07
 9.9429E+01 7.2119E-07
 9.9714E+01 6.8772E-07
 1.0000E+02 6.5561E-07
 1.0029E+02 6.2499E-07
 1.0057E+02 5.9566E-07
 1.0086E+02 5.6762E-07
 1.0114E+02 5.4084E-07
 1.0143E+02 5.1529E-07
 1.0171E+02 4.9086E-07
 1.0200E+02 4.6750E-07
 1.0229E+02 4.4524E-07
 1.0257E+02 4.2393E-07
 1.0286E+02 4.0366E-07
 1.0314E+02 3.8420E-07
 1.0343E+02 3.6567E-07
 1.0371E+02 3.4798E-07
 1.0400E+02 3.3107E-07
 1.0429E+02 3.1498E-07
 1.0457E+02 2.9958E-07
 1.0486E+02 2.8494E-07
 1.0514E+02 2.7097E-07
 1.0543E+02 2.5762E-07
 1.0571E+02 2.4492E-07
 1.0600E+02 2.3283E-07
 1.0629E+02 2.2130E-07
 1.0657E+02 2.1032E-07
 1.0686E+02 1.9987E-07
 1.0714E+02 1.8985E-07
 1.0743E+02 1.8035E-07
 1.0771E+02 1.7135E-07
 1.0800E+02 1.6272E-07
 1.0829E+02 1.5456E-07
 1.0857E+02 1.4676E-07
 1.0886E+02 1.3929E-07
 1.0914E+02 1.3220E-07
 1.0943E+02 1.2544E-07
 1.0971E+02 1.1904E-07
 1.1000E+02 1.1295E-07
 1.1029E+02 1.0715E-07
 1.1057E+02 1.0166E-07
 1.1086E+02 9.6398E-08
 1.1114E+02 9.1416E-08
 1.1143E+02 8.6695E-08
 1.1171E+02 8.2188E-08
 1.1200E+02 7.7905E-08
 1.1229E+02 7.3832E-08
 1.1257E+02 6.9966E-08
 1.1286E+02 6.6293E-08
 1.1314E+02 6.2814E-08
 1.1343E+02 5.9496E-08
 1.1371E+02 5.6334E-08
 1.1400E+02 5.3332E-08
 1.1429E+02 5.0508E-08
 1.1457E+02 4.7812E-08
 1.1486E+02 4.5239E-08
 1.1514E+02 4.2829E-08
 1.1543E+02 4.0523E-08
 1.1571E+02 3.8347E-08
 1.1600E+02 3.6280E-08
 1.1629E+02 3.4312E-08
 1.1657E+02 3.2452E-08
 1.1686E+02 3.0693E-08
 1.1714E+02 2.9015E-08
 1.1743E+02 2.7426E-08
 1.1771E+02 2.5937E-08
 1.1800E+02 2.4514E-08
 1.1829E+02 2.3182E-08
 1.1857E+02 2.1907E-08
 1.1886E+02 2.0705E-08
 1.1914E+02 1.9559E-08
 1.1943E+02 1.8473E-08
 1.1971E+02 1.7448E-08
 1.2000E+02 1.6462E-08
 1.2029E+02 1.5541E-08
 1.2057E+02 1.4672E-08
 1.2086E+02 1.3850E-08
 1.2114E+02 1.3066E-08
 1.2143E+02 1.2326E-08
 1.2171E+02 1.1638E-08
 1.2200E+02 1.0977E-08
 1.2229E+02 1.0352E-08
 1.2257E+02 9.7660E-09
 1.2286E+02 9.2049E-09
 1.2314E+02 8.6755E-09
 1.2343E+02 8.1732E-09
 1.2371E+02 7.7108E-09
 1.2400E+02 7.2627E-09
 1.2429E+02 6.8457E-09
 1.2457E+02 6.4560E-09
 1.2486E+02 6.0776E-09
 1.2514E+02 5.7330E-09
 1.2543E+02 5.3928E-09
 1.2571E+02 5.0806E-09
 1.2600E+02 4.7875E-09
 1.2629E+02 4.5026E-09
 1.2657E+02 4.2397E-09
 1.2686E+02 3.9879E-09
 1.2714E+02 3.7538E-09
 1.2743E+02 3.5320E-09
 1.2771E+02 3.3229E-09
 1.2800E+02 3.1237E-09
 1.2829E+02 2.9362E-09
 1.2857E+02 2.7624E-09
 1.2886E+02 2.5996E-09
 1.2914E+02 2.4441E-09
 1.2943E+02 2.2971E-09
 1.2971E+02 2.1608E-09
 1.3000E+02 2.0303E-09
 1.3029E+02 1.9083E-09
 1.3057E+02 1.7921E-09
 1.3086E+02 1.6819E-09
 1.3114E+02 1.5820E-09
 1.3143E+02 1.4864E-09
 1.3171E+02 1.3954E-09
 1.3200E+02 1.3087E-09
 1.3229E+02 1.2246E-09
 1.3257E+02 1.1513E-09
 1.3286E+02 1.0783E-09
 1.3314E+02 1.0108E-09
 1.3343E+02 9.5168E-10
 1.3371E+02 8.9117E-10
 1.3400E+02 8.3613E-10
 1.3429E+02 7.8473E-10
 1.3457E+02 7.3727E-10
 1.3486E+02 6.9232E-10
 1.3514E+02 6.4958E-10
 1.3543E+02 6.0997E-10
 1.3571E+02 5.7110E-10
 1.3600E+02 5.3388E-10
 1.3629E+02 5.0100E-10
 1.3657E+02 4.6826E-10
 1.3686E+02 4.3672E-10
 1.3714E+02 4.1047E-10
 1.3743E+02 3.8345E-10
 1.3771E+02 3.5956E-10
 1.3800E+02 3.3718E-10
 1.3829E+02 3.1494E-10
 1.3857E+02 2.9552E-10
 1.3886E+02 2.7550E-10
 1.3914E+02 2.5798E-10
 1.3943E+02 2.4077E-10
 1.3971E+02 2.2492E-10
 1.4000E+02 2.1182E-10
 1.4029E+02 1.9723E-10
 1.4057E+02 1.8533E-10
 1.4086E+02 1.7379E-10
 1.4114E+02 1.6237E-10
 1.4143E+02 1.5228E-10
 1.4171E+02 1.4149E-10
 1.4200E+02 1.3230E-10
 1.4229E+02 1.2302E-10
 1.4257E+02 1.1500E-10
 1.4286E+02 1.0737E-10
 1.4314E+02 9.9726E-11
 1.4343E+02 9.3552E-11
 1.4371E+02 8.7425E-11
 1.4400E+02 8.1519E-11
 1.4429E+02 7.5667E-11
 1.4457E+02 7.0659E-11
 1.4486E+02 6.6207E-11
 1.4514E+02 6.1628E-11
 1.4543E+02 5.7580E-11
 1.4571E+02 5.3989E-11
 1.4600E+02 5.0134E-11
 1.4629E+02 4.7073E-11
 1.4657E+02 4.4290E-11
 1.4686E+02 4.1362E-11
 1.4714E+02 3.8715E-11
 1.4743E+02 3.5840E-11
 1.4771E+02 3.3311E-11
 1.4800E+02 3.0719E-11
 1.4829E+02 2.8347E-11
 1.4857E+02 2.6001E-11
 1.4886E+02 2.4339E-11
 1.4914E+02 2.2995E-11
 1.4943E+02 2.1171E-11
 1.4971E+02 1.9990E-11
 1.5000E+02 1.8363E-11
 1.5029E+02 1.7072E-11
 1.5057E+02 1.6286E-11
 1.5086E+02 1.5098E-11
 1.5114E+02 1.4218E-11
 1.5143E+02 1.3267E-11
 1.5171E+02 1.2224E-11
 1.5200E+02 1.1319E-11
 1.5229E+02 1.0697E-11
 1.5257E+02 1.0142E-11
 1.5286E+02 9.1681E-12
 1.5314E+02 8.2813E-12
 1.5343E+02 7.6964E-12
 1.5371E+02 7.0120E-12
 1.5400E+02 6.4689E-12
 1.5429E+02 6.0791E-12
 1.5457E+02 5.7693E-12
 1.5486E+02 5.5023E-12
 1.5514E+02 5.0015E-12
 1.5543E+02 4.6938E-12
 1.5571E+02 4.3144E-12
 1.5600E+02 3.8427E-12
 1.5629E+02 3.6879E-12
 1.5657E+02 3.4488E-12
 1.5686E+02 3.2585E-12
 1.5714E+02 3.0590E-12
 1.5743E+02 2.8146E-12
 1.5771E+02 2.6546E-12
 1.5800E+02 2.4368E-12
 1.5829E+02 2.2743E-12
 1.5857E+02 2.1038E-12
 1.5886E+02 1.8960E-12
 1.5914E+02 1.7049E-12
 1.5943E+02 1.5814E-12
 1.5971E+02 1.4564E-12
 1.6000E+02 1.2953E-12
 1.6029E+02 1.2139E-12
 1.6057E+02 1.1204E-12
 1.6086E+02 1.0506E-12
 1.6114E+02 1.0146E-12
 1.6143E+02 9.7570E-13
 1.6171E+02 9.2374E-13
 1.6200E+02 8.4548E-13
 1.6229E+02 8.1812E-13
 1.6257E+02 7.4384E-13
 1.6286E+02 6.7706E-13
 1.6314E+02 6.2183E-13
 1.6343E+02 5.1653E-13
 1.6371E+02 5.0115E-13
 1.6400E+02 4.7142E-13
 1.6429E+02 4.2009E-13
 1.6457E+02 3.8465E-13
 1.6486E+02 3.3398E-13
 1.6514E+02 3.2273E-13
 1.6543E+02 3.0454E-13
 1.6571E+02 3.0724E-13
 1.6600E+02 2.8356E-13
 1.6629E+02 2.5672E-13
 1.6657E+02 2.5433E-13
 1.6686E+02 2.1988E-13
 1.6714E+02 2.0508E-13
 1.6743E+02 1.6328E-13
 1.6771E+02 1.4876E-13
 1.6800E+02 1.5590E-13
 1.6829E+02 1.3764E-13
 1.6857E+02 1.4074E-13
 1.6886E+02 1.2315E-13
 1.6914E+02 1.1736E-13
 1.6943E+02 1.0904E-13
 1.6971E+02 9.5555E-14
 1.7000E+02 9.6464E-14
 1.7029E+02 8.5424E-14
 1.7057E+02 7.9779E-14
 1.7086E+02 6.3177E-14
 1.7114E+02 5.2355E-14
 1.7143E+02 4.8507E-14
 1.7171E+02 4.2213E-14
 1.7200E+02 4.6940E-14
 1.7229E+02 4.6205E-14
 1.7257E+02 4.6407E-14
 1.7286E+02 4.9148E-14
 1.7314E+02 4.3067E-14
 1.7343E+02 3.5296E-14
 1.7371E+02 3.7467E-14
 1.7400E+02 3.7344E-14
 1.7429E+02 3.2015E-14
 1.7457E+02 2.2143E-14
 1.7486E+02 1.4280E-14
 1.7514E+02 1.5601E-14
 1.7543E+02 1.0323E-14
 1.7571E+02 1.2096E-14
 1.7600E+02 1.3386E-14
 1.7629E+02 9.4353E-15
 1.7657E+02 1.6105E-14
 1.7686E+02 1.5570E-14
 1.7714E+02 1.7354E-14
 1.7743E+02 1.7252E-14
 1.7771E+02 8.0332E-15
 1.7800E+02 9.8292E-15
 1.7829E+02 9.7916E-15
 1.7857E+02 9.5507E-15
 1.7886E+02 1.0172E-14
 1.7914E+02 6.3069E-15
 1.7943E+02 6.3187E-15
 1.7971E+02 3.8204E-15
 1.8000E+02 2.4917E-15
 1.8029E+02 2.0323E-15
 1.8057E+02 2.3596E-15
 1.8086E+02 2.5129E-15
 1.8114E+02 1.5135E-15
 1.8143E+02 3.9873E-15
 1.8171E+02 3.0544E-15
 1.8200E+02 5.4137E-15
 1.8229E+02 4.5159E-15
 1.8257E+02 8.8260E-16
 1.8286E+02 4.4387E-15
 1.8314E+02 1.7476E-15
 1.8343E+02 1.4925E-15
 1.8371E+02 4.7040E-15
 1.8400E+02 3.8046E-15
 1.8429E+02 2.9367E-15
 1.8457E+02 2.4575E-15
 1.8486E+02 2.1240E-15
 1.8514E+02 1.0211E-15
 1.8543E+02 1.4996E-15
 1.8571E+02 1.5924E-15
 1.8600E+02 1.3077E-15
 1.8629E+02 1.1333E-15
 1.8657E+02 7.8142E-16
 1.8686E+02 3.2551E-15
 1.8714E+02 2.9434E-15
 1.8743E+02 2.3145E-15
 1.8771E+02 4.0612E-15
 1.8800E+02 3.5260E-15
 1.8829E+02 3.1151E-15
 1.8857E+02 2.0983E-15
 1.8886E+02 7.7497E-16
 1.8914E+02 3.7237E-16
 1.8943E+02 1.7405E-16
 1.8971E+02 2.0921E-16
 1.9000E+02 4.7144E-17
 1.9029E+02 1.1328E-15
 1.9057E+02 1.0652E-15
 1.9086E+02 4.1158E-16
 1.9114E+02 3.6504E-16
 1.9143E+02 2.1502E-17
 1.9171E+02 2.1596E-16
 1.9200E+02 2.0429E-17
 1.9229E+02 4.8234E-16
 1.9257E+02 1.0818E-15
 1.9286E+02 5.5541E-16
 1.9314E+02 4.3946E-17
 1.9343E+02 1.6978E-16
 1.9371E+02 9.5802E-16
 1.9400E+02 5.5491E-16
 1.9429E+02 9.7829E-17
 1.9457E+02 3.1144E-16
 1.9486E+02 1.3347E-16
 1.9514E+02 7.3480E-17
 1.9543E+02 5.8467E-16
 1.9571E+02 4.4974E-16
 1.9600E+02 2.4823E-17
 1.9629E+02 1.1406E-16
 1.9657E+02 9.3066E-17
 1.9686E+02 3.3320E-16
 1.9714E+02 1.9270E-16
 1.9743E+02 3.3264E-17
 1.9771E+02 2.3605E-17
 1.9800E+02 1.2713E-17
 1.9829E+02 4.0593E-18
 1.9857E+02 1.2502E-18
 1.9886E+02 5.4087E-19
 1.9914E+02 2.1850E-19
 1.9943E+02 5.6390E-20
 1.9971E+02 9.5437E-21
 2.0000E+02 1.5089E-21
