 0.0000E+00 2.8187E-03
 2.8571E-01 2.8184E-03
 5.7143E-01 2.8177E-03
 8.5714E-01 2.8167E-03
 1.1429E+00 2.8154E-03
 1.4286E+00 2.8137E-03
 1.7143E+00 2.8115E-03
 2.0000E+00 2.8091E-03
 2.2857E+00 2.8062E-03
 2.5714E+00 2.8029E-03
 2.8571E+00 2.7993E-03
 3.1429E+00 2.7953E-03
 3.4286E+00 2.7909E-03
 3.7143E+00 2.7862E-03
 4.0000E+00 2.7811E-03
 4.2857E+00 2.7756E-03
 4.5714E+00 2.7697E-03
 4.8571E+00 2.7635E-03
 5.1429E+00 2.7569E-03
 5.4286E+00 2.7499E-03
 5.7143E+00 2.7426E-03
 6.0000E+00 2.7349E-03
 6.2857E+00 2.7269E-03
 6.5714E+00 2.7186E-03
 6.8571E+00 2.7099E-03
 7.1429E+00 2.7008E-03
 7.4286E+00 2.6915E-03
 7.7143E+00 2.6818E-03
 8.0000E+00 2.6717E-03
 8.2857E+00 2.6614E-03
 8.5714E+00 2.6507E-03
 8.8571E+00 2.6398E-03
 9.1429E+00 2.6285E-03
 9.4286E+00 2.6169E-03
 9.7143E+00 2.6050E-03
 1.0000E+01 2.5928E-03
 1.0286E+01 2.5803E-03
 1.0571E+01 2.5675E-03
 1.0857E+01 2.5544E-03
 1.1143E+01 2.5410E-03
 1.1429E+01 2.5274E-03
 1.1714E+01 2.5135E-03
 1.2000E+01 2.4994E-03
 1.2286E+01 2.4850E-03
 1.2571E+01 2.4703E-03
 1.2857E+01 2.4554E-03
 1.3143E+01 2.4403E-03
 1.3429E+01 2.4249E-03
 1.3714E+01 2.4093E-03
 1.4000E+01 2.3935E-03
 1.4286E+01 2.3775E-03
 1.4571E+01 2.3613E-03
 1.4857E+01 2.3448E-03
 1.5143E+01 2.3282E-03
 1.5429E+01 2.3114E-03
 1.5714E+01 2.2944E-03
 1.6000E+01 2.2771E-03
 1.6286E+01 2.2598E-03
 1.6571E+01 2.2422E-03
 1.6857E+01 2.2245E-03
 1.7143E+01 2.2066E-03
 1.7429E+01 2.1886E-03
 1.7714E+01 2.1704E-03
 1.8000E+01 2.1521E-03
 1.8286E+01 2.1337E-03
 1.8571E+01 2.1151E-03
 1.8857E+01 2.0964E-03
 1.9143E+01 2.0776E-03
 1.9429E+01 2.0587E-03
 1.9714E+01 2.0397E-03
 2.0000E+01 2.0206E-03
 2.0286E+01 2.0014E-03
 2.0571E+01 1.9821E-03
 2.0857E+01 1.9627E-03
 2.1143E+01 1.9432E-03
 2.1429E+01 1.9237E-03
 2.1714E+01 1.9041E-03
 2.2000E+01 1.8845E-03
 2.2286E+01 1.8648E-03
 2.2571E+01 1.8451E-03
 2.2857E+01 1.8253E-03
 2.3143E+01 1.8055E-03
 2.3429E+01 1.7856E-03
 2.3714E+01 1.7658E-03
 2.4000E+01 1.7459E-03
 2.4286E+01 1.7261E-03
 2.4571E+01 1.7062E-03
 2.4857E+01 1.6863E-03
 2.5143E+01 1.6664E-03
 2.5429E+01 1.6466E-03
 2.5714E+01 1.6267E-03
 2.6000E+01 1.6069E-03
 2.6286E+01 1.5871E-03
 2.6571E+01 1.5673E-03
 2.6857E+01 1.5476E-03
 2.7143E+01 1.5279E-03
 2.7429E+01 1.5082E-03
 2.7714E+01 1.4886E-03
 2.8000E+01 1.4691E-03
 2.8286E+01 1.4496E-03
 2.8571E+01 1.4302E-03
 2.8857E+01 1.4109E-03
 2.9143E+01 1.3916E-03
 2.9429E+01 1.3724E-03
 2.9714E+01 1.3533E-03
 3.0000E+01 1.3342E-03
 3.0286E+01 1.3153E-03
 3.0571E+01 1.2965E-03
 3.0857E+01 1.2777E-03
 3.1143E+01 1.2591E-03
 3.1429E+01 1.2405E-03
 3.1714E+01 1.2221E-03
 3.2000E+01 1.2038E-03
 3.2286E+01 1.1855E-03
 3.2571E+01 1.1674E-03
 3.2857E+01 1.1494E-03
 3.3143E+01 1.1316E-03
 3.3429E+01 1.1139E-03
 3.3714E+01 1.0963E-03
 3.4000E+01 1.0788E-03
 3.4286E+01 1.0615E-03
 3.4571E+01 1.0443E-03
 3.4857E+01 1.0272E-03
 3.5143E+01 1.0103E-03
 3.5429E+01 9.9353E-04
 3.5714E+01 9.7690E-04
 3.6000E+01 9.6041E-04
 3.6286E+01 9.4408E-04
 3.6571E+01 9.2791E-04
 3.6857E+01 9.1188E-04
 3.7143E+01 8.9601E-04
 3.7429E+01 8.8030E-04
 3.7714E+01 8.6474E-04
 3.8000E+01 8.4935E-04
 3.8286E+01 8.3411E-04
 3.8571E+01 8.1904E-04
 3.8857E+01 8.0414E-04
 3.9143E+01 7.8939E-04
 3.9429E+01 7.7482E-04
 3.9714E+01 7.6041E-04
 4.0000E+01 7.4616E-04
 4.0286E+01 7.3208E-04
 4.0571E+01 7.1817E-04
 4.0857E+01 7.0442E-04
 4.1143E+01 6.9085E-04
 4.1429E+01 6.7744E-04
 4.1714E+01 6.6421E-04
 4.2000E+01 6.5114E-04
 4.2286E+01 6.3825E-04
 4.2571E+01 6.2553E-04
 4.2857E+01 6.1297E-04
 4.3143E+01 6.0059E-04
 4.3429E+01 5.8838E-04
 4.3714E+01 5.7634E-04
 4.4000E+01 5.6447E-04
 4.4286E+01 5.5277E-04
 4.4571E+01 5.4124E-04
 4.4857E+01 5.2987E-04
 4.5143E+01 5.1868E-04
 4.5429E+01 5.0765E-04
 4.5714E+01 4.9679E-04
 4.6000E+01 4.8610E-04
 4.6286E+01 4.7557E-04
 4.6571E+01 4.6521E-04
 4.6857E+01 4.5501E-04
 4.7143E+01 4.4498E-04
 4.7429E+01 4.3510E-04
 4.7714E+01 4.2539E-04
 4.8000E+01 4.1584E-04
 4.8286E+01 4.0645E-04
 4.8571E+01 3.9722E-04
 4.8857E+01 3.8814E-04
 4.9143E+01 3.7922E-04
 4.9429E+01 3.7045E-04
 4.9714E+01 3.6184E-04
 5.0000E+01 3.5337E-04
 5.0286E+01 3.4507E-04
 5.0571E+01 3.3691E-04
 5.0857E+01 3.2890E-04
 5.1143E+01 3.2103E-04
 5.1429E+01 3.1331E-04
 5.1714E+01 3.0574E-04
 5.2000E+01 2.9831E-04
 5.2286E+01 2.9102E-04
 5.2571E+01 2.8386E-04
 5.2857E+01 2.7685E-04
 5.3143E+01 2.6998E-04
 5.3429E+01 2.6324E-04
 5.3714E+01 2.5663E-04
 5.4000E+01 2.5016E-04
 5.4286E+01 2.4381E-04
 5.4571E+01 2.3760E-04
 5.4857E+01 2.3151E-04
 5.5143E+01 2.2555E-04
 5.5429E+01 2.1971E-04
 5.5714E+01 2.1399E-04
 5.6000E+01 2.0839E-04
 5.6286E+01 2.0291E-04
 5.6571E+01 1.9755E-04
 5.6857E+01 1.9231E-04
 5.7143E+01 1.8718E-04
 5.7429E+01 1.8216E-04
 5.7714E+01 1.7725E-04
 5.8000E+01 1.7245E-04
 5.8286E+01 1.6776E-04
 5.8571E+01 1.6317E-04
 5.8857E+01 1.5869E-04
 5.9143E+01 1.5431E-04
 5.9429E+01 1.5003E-04
 5.9714E+01 1.4585E-04
 6.0000E+01 1.4177E-04
 6.0286E+01 1.3778E-04
 6.0571E+01 1.3388E-04
 6.0857E+01 1.3008E-04
 6.1143E+01 1.2637E-04
 6.1429E+01 1.2275E-04
 6.1714E+01 1.1921E-04
 6.2000E+01 1.1577E-04
 6.2286E+01 1.1240E-04
 6.2571E+01 1.0912E-04
 6.2857E+01 1.0592E-04
 6.3143E+01 1.0280E-04
 6.3429E+01 9.9760E-05
 6.3714E+01 9.6795E-05
 6.4000E+01 9.3907E-05
 6.4286E+01 9.1090E-05
 6.4571E+01 8.8347E-05
 6.4857E+01 8.5674E-05
 6.5143E+01 8.3073E-05
 6.5429E+01 8.0539E-05
 6.5714E+01 7.8071E-05
 6.6000E+01 7.5668E-05
 6.6286E+01 7.3329E-05
 6.6571E+01 7.1055E-05
 6.6857E+01 6.8840E-05
 6.7143E+01 6.6686E-05
 6.7429E+01 6.4590E-05
 6.7714E+01 6.2552E-05
 6.8000E+01 6.0571E-05
 6.8286E+01 5.8643E-05
 6.8571E+01 5.6770E-05
 6.8857E+01 5.4948E-05
 6.9143E+01 5.3179E-05
 6.9429E+01 5.1459E-05
 6.9714E+01 4.9788E-05
 7.0000E+01 4.8164E-05
 7.0286E+01 4.6587E-05
 7.0571E+01 4.5056E-05
 7.0857E+01 4.3569E-05
 7.1143E+01 4.2126E-05
 7.1429E+01 4.0725E-05
 7.1714E+01 3.9365E-05
 7.2000E+01 3.8047E-05
 7.2286E+01 3.6766E-05
 7.2571E+01 3.5524E-05
 7.2857E+01 3.4320E-05
 7.3143E+01 3.3152E-05
 7.3429E+01 3.2019E-05
 7.3714E+01 3.0921E-05
 7.4000E+01 2.9856E-05
 7.4286E+01 2.8823E-05
 7.4571E+01 2.7823E-05
 7.4857E+01 2.6853E-05
 7.5143E+01 2.5914E-05
 7.5429E+01 2.5005E-05
 7.5714E+01 2.4124E-05
 7.6000E+01 2.3271E-05
 7.6286E+01 2.2445E-05
 7.6571E+01 2.1645E-05
 7.6857E+01 2.0872E-05
 7.7143E+01 2.0122E-05
 7.7429E+01 1.9397E-05
 7.7714E+01 1.8696E-05
 7.8000E+01 1.8018E-05
 7.8286E+01 1.7362E-05
 7.8571E+01 1.6728E-05
 7.8857E+01 1.6115E-05
 7.9143E+01 1.5522E-05
 7.9429E+01 1.4949E-05
 7.9714E+01 1.4395E-05
 8.0000E+01 1.3860E-05
 8.0286E+01 1.3343E-05
 8.0571E+01 1.2843E-05
 8.0857E+01 1.2361E-05
 8.1143E+01 1.1895E-05
 8.1429E+01 1.1445E-05
 8.1714E+01 1.1010E-05
 8.2000E+01 1.0591E-05
 8.2286E+01 1.0186E-05
 8.2571E+01 9.7957E-06
 8.2857E+01 9.4185E-06
 8.3143E+01 9.0554E-06
 8.3429E+01 8.7044E-06
 8.3714E+01 8.3662E-06
 8.4000E+01 8.0397E-06
 8.4286E+01 7.7245E-06
 8.4571E+01 7.4216E-06
 8.4857E+01 7.1288E-06
 8.5143E+01 6.8473E-06
 8.5429E+01 6.5754E-06
 8.5714E+01 6.3140E-06
 8.6000E+01 6.0618E-06
 8.6286E+01 5.8189E-06
 8.6571E+01 5.5850E-06
 8.6857E+01 5.3597E-06
 8.7143E+01 5.1427E-06
 8.7429E+01 4.9339E-06
 8.7714E+01 4.7331E-06
 8.8000E+01 4.5397E-06
 8.8286E+01 4.3538E-06
 8.8571E+01 4.1749E-06
 8.8857E+01 4.0029E-06
 8.9143E+01 3.8373E-06
 8.9429E+01 3.6782E-06
 8.9714E+01 3.5250E-06
 9.0000E+01 3.3778E-06
 9.0286E+01 3.2365E-06
 9.0571E+01 3.1005E-06
 9.0857E+01 2.9700E-06
 9.1143E+01 2.8445E-06
 9.1429E+01 2.7240E-06
 9.1714E+01 2.6083E-06
 9.2000E+01 2.4971E-06
 9.2286E+01 2.3905E-06
 9.2571E+01 2.2879E-06
 9.2857E+01 2.1895E-06
 9.3143E+01 2.0949E-06
 9.3429E+01 2.0042E-06
 9.3714E+01 1.9173E-06
 9.4000E+01 1.8336E-06
 9.4286E+01 1.7534E-06
 9.4571E+01 1.6765E-06
 9.4857E+01 1.6029E-06
 9.5143E+01 1.5322E-06
 9.5429E+01 1.4644E-06
 9.5714E+01 1.3995E-06
 9.6000E+01 1.3372E-06
 9.6286E+01 1.2776E-06
 9.6571E+01 1.2205E-06
 9.6857E+01 1.1657E-06
 9.7143E+01 1.1133E-06
 9.7429E+01 1.0631E-06
 9.7714E+01 1.0150E-06
 9.8000E+01 9.6889E-07
 9.8286E+01 9.2475E-07
 9.8571E+01 8.8261E-07
 9.8857E+01 8.4215E-07
 9.9143E+01 8.0347E-07
 9.9429E+01 7.6651E-07
 9.9714E+01 7.3113E-07
 1.0000E+02 6.9730E-07
 1.0029E+02 6.6489E-07
 1.0057E+02 6.3402E-07
 1.0086E+02 6.0436E-07
 1.0114E+02 5.7613E-07
 1.0143E+02 5.4910E-07
 1.0171E+02 5.2330E-07
 1.0200E+02 4.9863E-07
 1.0229E+02 4.7501E-07
 1.0257E+02 4.5253E-07
 1.0286E+02 4.3101E-07
 1.0314E+02 4.1054E-07
 1.0343E+02 3.9086E-07
 1.0371E+02 3.7216E-07
 1.0400E+02 3.5420E-07
 1.0429E+02 3.3713E-07
 1.0457E+02 3.2086E-07
 1.0486E+02 3.0528E-07
 1.0514E+02 2.9046E-07
 1.0543E+02 2.7627E-07
 1.0571E+02 2.6282E-07
 1.0600E+02 2.4990E-07
 1.0629E+02 2.3764E-07
 1.0657E+02 2.2594E-07
 1.0686E+02 2.1476E-07
 1.0714E+02 2.0411E-07
 1.0743E+02 1.9398E-07
 1.0771E+02 1.8432E-07
 1.0800E+02 1.7511E-07
 1.0829E+02 1.6636E-07
 1.0857E+02 1.5798E-07
 1.0886E+02 1.5004E-07
 1.0914E+02 1.4248E-07
 1.0943E+02 1.3527E-07
 1.0971E+02 1.2841E-07
 1.1000E+02 1.2190E-07
 1.1029E+02 1.1570E-07
 1.1057E+02 1.0980E-07
 1.1086E+02 1.0420E-07
 1.1114E+02 9.8848E-08
 1.1143E+02 9.3770E-08
 1.1171E+02 8.8955E-08
 1.1200E+02 8.4366E-08
 1.1229E+02 8.0001E-08
 1.1257E+02 7.5831E-08
 1.1286E+02 7.1894E-08
 1.1314E+02 6.8119E-08
 1.1343E+02 6.4548E-08
 1.1371E+02 6.1165E-08
 1.1400E+02 5.7944E-08
 1.1429E+02 5.4909E-08
 1.1457E+02 5.1995E-08
 1.1486E+02 4.9233E-08
 1.1514E+02 4.6622E-08
 1.1543E+02 4.4140E-08
 1.1571E+02 4.1790E-08
 1.1600E+02 3.9554E-08
 1.1629E+02 3.7433E-08
 1.1657E+02 3.5422E-08
 1.1686E+02 3.3514E-08
 1.1714E+02 3.1704E-08
 1.1743E+02 2.9982E-08
 1.1771E+02 2.8355E-08
 1.1800E+02 2.6805E-08
 1.1829E+02 2.5337E-08
 1.1857E+02 2.3949E-08
 1.1886E+02 2.2633E-08
 1.1914E+02 2.1399E-08
 1.1943E+02 2.0210E-08
 1.1971E+02 1.9103E-08
 1.2000E+02 1.8055E-08
 1.2029E+02 1.7054E-08
 1.2057E+02 1.6120E-08
 1.2086E+02 1.5216E-08
 1.2114E+02 1.4366E-08
 1.2143E+02 1.3566E-08
 1.2171E+02 1.2801E-08
 1.2200E+02 1.2081E-08
 1.2229E+02 1.1416E-08
 1.2257E+02 1.0769E-08
 1.2286E+02 1.0159E-08
 1.2314E+02 9.5822E-09
 1.2343E+02 9.0290E-09
 1.2371E+02 8.5174E-09
 1.2400E+02 8.0311E-09
 1.2429E+02 7.5755E-09
 1.2457E+02 7.1371E-09
 1.2486E+02 6.7257E-09
 1.2514E+02 6.3369E-09
 1.2543E+02 5.9666E-09
 1.2571E+02 5.6206E-09
 1.2600E+02 5.2967E-09
 1.2629E+02 4.9885E-09
 1.2657E+02 4.6958E-09
 1.2686E+02 4.4238E-09
 1.2714E+02 4.1674E-09
 1.2743E+02 3.9267E-09
 1.2771E+02 3.6982E-09
 1.2800E+02 3.4801E-09
 1.2829E+02 3.2745E-09
 1.2857E+02 3.0774E-09
 1.2886E+02 2.8960E-09
 1.2914E+02 2.7258E-09
 1.2943E+02 2.5585E-09
 1.2971E+02 2.4093E-09
 1.3000E+02 2.2646E-09
 1.3029E+02 2.1294E-09
 1.3057E+02 2.0059E-09
 1.3086E+02 1.8843E-09
 1.3114E+02 1.7699E-09
 1.3143E+02 1.6599E-09
 1.3171E+02 1.5619E-09
 1.3200E+02 1.4645E-09
 1.3229E+02 1.3745E-09
 1.3257E+02 1.2915E-09
 1.3286E+02 1.2118E-09
 1.3314E+02 1.1409E-09
 1.3343E+02 1.0694E-09
 1.3371E+02 1.0048E-09
 1.3400E+02 9.4331E-10
 1.3429E+02 8.8588E-10
 1.3457E+02 8.3165E-10
 1.3486E+02 7.7783E-10
 1.3514E+02 7.3052E-10
 1.3543E+02 6.8422E-10
 1.3571E+02 6.4071E-10
 1.3600E+02 6.0129E-10
 1.3629E+02 5.6275E-10
 1.3657E+02 5.2828E-10
 1.3686E+02 4.9508E-10
 1.3714E+02 4.6357E-10
 1.3743E+02 4.3467E-10
 1.3771E+02 4.0579E-10
 1.3800E+02 3.8146E-10
 1.3829E+02 3.5881E-10
 1.3857E+02 3.3537E-10
 1.3886E+02 3.1394E-10
 1.3914E+02 2.9516E-10
 1.3943E+02 2.7588E-10
 1.3971E+02 2.5801E-10
 1.4000E+02 2.4189E-10
 1.4029E+02 2.2569E-10
 1.4057E+02 2.1138E-10
 1.4086E+02 1.9676E-10
 1.4114E+02 1.8415E-10
 1.4143E+02 1.7200E-10
 1.4171E+02 1.6008E-10
 1.4200E+02 1.4981E-10
 1.4229E+02 1.3960E-10
 1.4257E+02 1.3096E-10
 1.4286E+02 1.2221E-10
 1.4314E+02 1.1444E-10
 1.4343E+02 1.0811E-10
 1.4371E+02 1.0095E-10
 1.4400E+02 9.4255E-11
 1.4429E+02 8.8078E-11
 1.4457E+02 8.1798E-11
 1.4486E+02 7.6540E-11
 1.4514E+02 7.1535E-11
 1.4543E+02 6.6377E-11
 1.4571E+02 6.2111E-11
 1.4600E+02 5.7779E-11
 1.4629E+02 5.3904E-11
 1.4657E+02 5.0521E-11
 1.4686E+02 4.6441E-11
 1.4714E+02 4.3779E-11
 1.4743E+02 4.0965E-11
 1.4771E+02 3.8002E-11
 1.4800E+02 3.5667E-11
 1.4829E+02 3.2488E-11
 1.4857E+02 3.0455E-11
 1.4886E+02 2.8405E-11
 1.4914E+02 2.6757E-11
 1.4943E+02 2.5243E-11
 1.4971E+02 2.3252E-11
 1.5000E+02 2.2269E-11
 1.5029E+02 2.0556E-11
 1.5057E+02 1.8907E-11
 1.5086E+02 1.7792E-11
 1.5114E+02 1.6407E-11
 1.5143E+02 1.5090E-11
 1.5171E+02 1.3927E-11
 1.5200E+02 1.3031E-11
 1.5229E+02 1.2124E-11
 1.5257E+02 1.1221E-11
 1.5286E+02 1.0552E-11
 1.5314E+02 9.7073E-12
 1.5343E+02 8.8810E-12
 1.5371E+02 8.4054E-12
 1.5400E+02 7.7211E-12
 1.5429E+02 7.1867E-12
 1.5457E+02 6.7570E-12
 1.5486E+02 6.3752E-12
 1.5514E+02 6.0473E-12
 1.5543E+02 5.6366E-12
 1.5571E+02 5.3566E-12
 1.5600E+02 4.8827E-12
 1.5629E+02 4.5614E-12
 1.5657E+02 4.1837E-12
 1.5686E+02 3.7221E-12
 1.5714E+02 3.4652E-12
 1.5743E+02 3.1417E-12
 1.5771E+02 2.9092E-12
 1.5800E+02 2.6338E-12
 1.5829E+02 2.4574E-12
 1.5857E+02 2.3400E-12
 1.5886E+02 2.1705E-12
 1.5914E+02 2.0794E-12
 1.5943E+02 1.9266E-12
 1.5971E+02 1.8151E-12
 1.6000E+02 1.6919E-12
 1.6029E+02 1.5677E-12
 1.6057E+02 1.4584E-12
 1.6086E+02 1.3179E-12
 1.6114E+02 1.3142E-12
 1.6143E+02 1.2507E-12
 1.6171E+02 1.0590E-12
 1.6200E+02 9.8873E-13
 1.6229E+02 8.8187E-13
 1.6257E+02 7.6163E-13
 1.6286E+02 7.4103E-13
 1.6314E+02 6.5831E-13
 1.6343E+02 6.3448E-13
 1.6371E+02 6.0989E-13
 1.6400E+02 5.4347E-13
 1.6429E+02 5.2792E-13
 1.6457E+02 4.6863E-13
 1.6486E+02 4.2836E-13
 1.6514E+02 3.9671E-13
 1.6543E+02 3.8597E-13
 1.6571E+02 3.5745E-13
 1.6600E+02 2.9254E-13
 1.6629E+02 3.1161E-13
 1.6657E+02 3.0960E-13
 1.6686E+02 3.0923E-13
 1.6714E+02 3.1833E-13
 1.6743E+02 2.4857E-13
 1.6771E+02 1.9713E-13
 1.6800E+02 1.6888E-13
 1.6829E+02 1.4093E-13
 1.6857E+02 1.3412E-13
 1.6886E+02 1.3659E-13
 1.6914E+02 1.2999E-13
 1.6943E+02 1.0729E-13
 1.6971E+02 9.9178E-14
 1.7000E+02 1.0577E-13
 1.7029E+02 1.0698E-13
 1.7057E+02 8.7373E-14
 1.7086E+02 9.1637E-14
 1.7114E+02 1.1069E-13
 1.7143E+02 8.5905E-14
 1.7171E+02 7.1576E-14
 1.7200E+02 6.2780E-14
 1.7229E+02 5.2544E-14
 1.7257E+02 4.8296E-14
 1.7286E+02 3.8196E-14
 1.7314E+02 4.3569E-14
 1.7343E+02 3.4017E-14
 1.7371E+02 3.0695E-14
 1.7400E+02 3.4561E-14
 1.7429E+02 3.2478E-14
 1.7457E+02 3.4802E-14
 1.7486E+02 2.4985E-14
 1.7514E+02 2.7521E-14
 1.7543E+02 2.4190E-14
 1.7571E+02 1.8899E-14
 1.7600E+02 2.3581E-14
 1.7629E+02 1.6807E-14
 1.7657E+02 1.3025E-14
 1.7686E+02 1.1122E-14
 1.7714E+02 1.3070E-14
 1.7743E+02 1.1223E-14
 1.7771E+02 1.1167E-14
 1.7800E+02 1.5502E-14
 1.7829E+02 1.1304E-14
 1.7857E+02 1.4516E-14
 1.7886E+02 1.3769E-14
 1.7914E+02 7.5642E-15
 1.7943E+02 5.9506E-15
 1.7971E+02 2.6504E-15
 1.8000E+02 2.7261E-15
 1.8029E+02 4.2582E-15
 1.8057E+02 4.0286E-15
 1.8086E+02 3.1088E-15
 1.8114E+02 3.2508E-15
 1.8143E+02 5.1831E-15
 1.8171E+02 6.8440E-15
 1.8200E+02 6.7319E-15
 1.8229E+02 6.3451E-15
 1.8257E+02 6.1920E-15
 1.8286E+02 5.4576E-15
 1.8314E+02 4.8501E-15
 1.8343E+02 2.9301E-15
 1.8371E+02 9.6920E-16
 1.8400E+02 6.8050E-17
 1.8429E+02 3.7566E-16
 1.8457E+02 1.2422E-15
 1.8486E+02 3.8774E-16
 1.8514E+02 9.0479E-16
 1.8543E+02 1.2499E-15
 1.8571E+02 1.3973E-15
 1.8600E+02 3.3616E-15
 1.8629E+02 1.7313E-15
 1.8657E+02 2.8711E-15
 1.8686E+02 3.7657E-15
 1.8714E+02 8.9144E-16
 1.8743E+02 1.2743E-15
 1.8771E+02 5.2730E-16
 1.8800E+02 5.7663E-16
 1.8829E+02 1.2655E-15
 1.8857E+02 1.7753E-16
 1.8886E+02 1.0914E-15
 1.8914E+02 6.6019E-16
 1.8943E+02 2.3712E-18
 1.8971E+02 7.2022E-17
 1.9000E+02 2.5765E-16
 1.9029E+02 5.8624E-16
 1.9057E+02 5.2265E-16
 1.9086E+02 3.7332E-16
 1.9114E+02 2.1843E-16
 1.9143E+02 1.5801E-15
 1.9171E+02 1.2425E-15
 1.9200E+02 1.2042E-16
 1.9229E+02 2.6149E-16
 1.9257E+02 4.4493E-17
 1.9286E+02 9.4329E-16
 1.9314E+02 1.0515E-15
 1.9343E+02 5.1660E-16
 1.9371E+02 1.8144E-15
 1.9400E+02 1.4679E-15
 1.9429E+02 3.2253E-16
 1.9457E+02 2.6421E-16
 1.9486E+02 5.0893E-16
 1.9514E+02 5.6777E-16
 1.9543E+02 1.4402E-15
 1.9571E+02 2.1695E-15
 1.9600E+02 2.2925E-15
 1.9629E+02 1.6280E-15
 1.9657E+02 4.8140E-16
 1.9686E+02 7.5989E-16
 1.9714E+02 6.0545E-16
 1.9743E+02 8.6445E-17
 1.9771E+02 6.9380E-18
 1.9800E+02 1.2142E-17
 1.9829E+02 5.1017E-18
 1.9857E+02 8.3045E-19
 1.9886E+02 1.7221E-19
 1.9914E+02 1.8713E-19
 1.9943E+02 1.0346E-19
 1.9971E+02 4.1695E-20
 2.0000E+02 7.4886E-21
