 0.0000E+00 2.6575E-03
 2.8571E-01 2.6572E-03
 5.7143E-01 2.6566E-03
 8.5714E-01 2.6557E-03
 1.1429E+00 2.6545E-03
 1.4286E+00 2.6529E-03
 1.7143E+00 2.6510E-03
 2.0000E+00 2.6488E-03
 2.2857E+00 2.6462E-03
 2.5714E+00 2.6433E-03
 2.8571E+00 2.6400E-03
 3.1429E+00 2.6364E-03
 3.4286E+00 2.6325E-03
 3.7143E+00 2.6283E-03
 4.0000E+00 2.6237E-03
 4.2857E+00 2.6188E-03
 4.5714E+00 2.6136E-03
 4.8571E+00 2.6080E-03
 5.1429E+00 2.6022E-03
 5.4286E+00 2.5960E-03
 5.7143E+00 2.5895E-03
 6.0000E+00 2.5827E-03
 6.2857E+00 2.5756E-03
 6.5714E+00 2.5681E-03
 6.8571E+00 2.5604E-03
 7.1429E+00 2.5524E-03
 7.4286E+00 2.5441E-03
 7.7143E+00 2.5354E-03
 8.0000E+00 2.5265E-03
 8.2857E+00 2.5173E-03
 8.5714E+00 2.5078E-03
 8.8571E+00 2.4980E-03
 9.1429E+00 2.4879E-03
 9.4286E+00 2.4776E-03
 9.7143E+00 2.4670E-03
 1.0000E+01 2.4561E-03
 1.0286E+01 2.4450E-03
 1.0571E+01 2.4336E-03
 1.0857E+01 2.4219E-03
 1.1143E+01 2.4100E-03
 1.1429E+01 2.3978E-03
 1.1714E+01 2.3855E-03
 1.2000E+01 2.3728E-03
 1.2286E+01 2.3599E-03
 1.2571E+01 2.3468E-03
 1.2857E+01 2.3335E-03
 1.3143E+01 2.3199E-03
 1.3429E+01 2.3062E-03
 1.3714E+01 2.2922E-03
 1.4000E+01 2.2780E-03
 1.4286E+01 2.2636E-03
 1.4571E+01 2.2490E-03
 1.4857E+01 2.2343E-03
 1.5143E+01 2.2193E-03
 1.5429E+01 2.2041E-03
 1.5714E+01 2.1888E-03
 1.6000E+01 2.1733E-03
 1.6286E+01 2.1577E-03
 1.6571E+01 2.1418E-03
 1.6857E+01 2.1259E-03
 1.7143E+01 2.1098E-03
 1.7429E+01 2.0935E-03
 1.7714E+01 2.0771E-03
 1.8000E+01 2.0605E-03
 1.8286E+01 2.0439E-03
 1.8571E+01 2.0271E-03
 1.8857E+01 2.0102E-03
 1.9143E+01 1.9932E-03
 1.9429E+01 1.9760E-03
 1.9714E+01 1.9588E-03
 2.0000E+01 1.9415E-03
 2.0286E+01 1.9240E-03
 2.0571E+01 1.9065E-03
 2.0857E+01 1.8890E-03
 2.1143E+01 1.8713E-03
 2.1429E+01 1.8536E-03
 2.1714E+01 1.8358E-03
 2.2000E+01 1.8179E-03
 2.2286E+01 1.8000E-03
 2.2571E+01 1.7820E-03
 2.2857E+01 1.7640E-03
 2.3143E+01 1.7460E-03
 2.3429E+01 1.7279E-03
 2.3714E+01 1.7098E-03
 2.4000E+01 1.6916E-03
 2.4286E+01 1.6735E-03
 2.4571E+01 1.6553E-03
 2.4857E+01 1.6371E-03
 2.5143E+01 1.6189E-03
 2.5429E+01 1.6007E-03
 2.5714E+01 1.5825E-03
 2.6000E+01 1.5643E-03
 2.6286E+01 1.5461E-03
 2.6571E+01 1.5280E-03
 2.6857E+01 1.5098E-03
 2.7143E+01 1.4917E-03
 2.7429E+01 1.4736E-03
 2.7714E+01 1.4555E-03
 2.8000E+01 1.4375E-03
 2.8286E+01 1.4196E-03
 2.8571E+01 1.4016E-03
 2.8857E+01 1.3837E-03
 2.9143E+01 1.3659E-03
 2.9429E+01 1.3481E-03
 2.9714E+01 1.3304E-03
 3.0000E+01 1.3128E-03
 3.0286E+01 1.2952E-03
 3.0571E+01 1.2777E-03
 3.0857E+01 1.2603E-03
 3.1143E+01 1.2429E-03
 3.1429E+01 1.2256E-03
 3.1714E+01 1.2085E-03
 3.2000E+01 1.1914E-03
 3.2286E+01 1.1744E-03
 3.2571E+01 1.1575E-03
 3.2857E+01 1.1406E-03
 3.3143E+01 1.1239E-03
 3.3429E+01 1.1073E-03
 3.3714E+01 1.0908E-03
 3.4000E+01 1.0744E-03
 3.4286E+01 1.0582E-03
 3.4571E+01 1.0420E-03
 3.4857E+01 1.0259E-03
 3.5143E+01 1.0100E-03
 3.5429E+01 9.9419E-04
 3.5714E+01 9.7849E-04
 3.6000E+01 9.6292E-04
 3.6286E+01 9.4748E-04
 3.6571E+01 9.3216E-04
 3.6857E+01 9.1697E-04
 3.7143E+01 9.0192E-04
 3.7429E+01 8.8700E-04
 3.7714E+01 8.7222E-04
 3.8000E+01 8.5758E-04
 3.8286E+01 8.4308E-04
 3.8571E+01 8.2870E-04
 3.8857E+01 8.1448E-04
 3.9143E+01 8.0040E-04
 3.9429E+01 7.8646E-04
 3.9714E+01 7.7266E-04
 4.0000E+01 7.5901E-04
 4.0286E+01 7.4550E-04
 4.0571E+01 7.3214E-04
 4.0857E+01 7.1893E-04
 4.1143E+01 7.0586E-04
 4.1429E+01 6.9295E-04
 4.1714E+01 6.8018E-04
 4.2000E+01 6.6757E-04
 4.2286E+01 6.5510E-04
 4.2571E+01 6.4278E-04
 4.2857E+01 6.3061E-04
 4.3143E+01 6.1859E-04
 4.3429E+01 6.0673E-04
 4.3714E+01 5.9501E-04
 4.4000E+01 5.8345E-04
 4.4286E+01 5.7204E-04
 4.4571E+01 5.6078E-04
 4.4857E+01 5.4967E-04
 4.5143E+01 5.3872E-04
 4.5429E+01 5.2792E-04
 4.5714E+01 5.1726E-04
 4.6000E+01 5.0676E-04
 4.6286E+01 4.9640E-04
 4.6571E+01 4.8620E-04
 4.6857E+01 4.7614E-04
 4.7143E+01 4.6624E-04
 4.7429E+01 4.5647E-04
 4.7714E+01 4.4686E-04
 4.8000E+01 4.3739E-04
 4.8286E+01 4.2807E-04
 4.8571E+01 4.1890E-04
 4.8857E+01 4.0987E-04
 4.9143E+01 4.0098E-04
 4.9429E+01 3.9223E-04
 4.9714E+01 3.8363E-04
 5.0000E+01 3.7516E-04
 5.0286E+01 3.6684E-04
 5.0571E+01 3.5866E-04
 5.0857E+01 3.5061E-04
 5.1143E+01 3.4271E-04
 5.1429E+01 3.3493E-04
 5.1714E+01 3.2729E-04
 5.2000E+01 3.1979E-04
 5.2286E+01 3.1242E-04
 5.2571E+01 3.0518E-04
 5.2857E+01 2.9806E-04
 5.3143E+01 2.9108E-04
 5.3429E+01 2.8422E-04
 5.3714E+01 2.7749E-04
 5.4000E+01 2.7089E-04
 5.4286E+01 2.6440E-04
 5.4571E+01 2.5804E-04
 5.4857E+01 2.5180E-04
 5.5143E+01 2.4568E-04
 5.5429E+01 2.3968E-04
 5.5714E+01 2.3379E-04
 5.6000E+01 2.2802E-04
 5.6286E+01 2.2237E-04
 5.6571E+01 2.1682E-04
 5.6857E+01 2.1139E-04
 5.7143E+01 2.0607E-04
 5.7429E+01 2.0086E-04
 5.7714E+01 1.9575E-04
 5.8000E+01 1.9075E-04
 5.8286E+01 1.8585E-04
 5.8571E+01 1.8106E-04
 5.8857E+01 1.7637E-04
 5.9143E+01 1.7177E-04
 5.9429E+01 1.6728E-04
 5.9714E+01 1.6288E-04
 6.0000E+01 1.5857E-04
 6.0286E+01 1.5436E-04
 6.0571E+01 1.5025E-04
 6.0857E+01 1.4622E-04
 6.1143E+01 1.4229E-04
 6.1429E+01 1.3844E-04
 6.1714E+01 1.3468E-04
 6.2000E+01 1.3100E-04
 6.2286E+01 1.2741E-04
 6.2571E+01 1.2390E-04
 6.2857E+01 1.2047E-04
 6.3143E+01 1.1713E-04
 6.3429E+01 1.1386E-04
 6.3714E+01 1.1067E-04
 6.4000E+01 1.0755E-04
 6.4286E+01 1.0451E-04
 6.4571E+01 1.0154E-04
 6.4857E+01 9.8642E-05
 6.5143E+01 9.5814E-05
 6.5429E+01 9.3056E-05
 6.5714E+01 9.0365E-05
 6.6000E+01 8.7741E-05
 6.6286E+01 8.5182E-05
 6.6571E+01 8.2688E-05
 6.6857E+01 8.0255E-05
 6.7143E+01 7.7886E-05
 6.7429E+01 7.5577E-05
 6.7714E+01 7.3327E-05
 6.8000E+01 7.1136E-05
 6.8286E+01 6.9001E-05
 6.8571E+01 6.6921E-05
 6.8857E+01 6.4896E-05
 6.9143E+01 6.2924E-05
 6.9429E+01 6.1003E-05
 6.9714E+01 5.9134E-05
 7.0000E+01 5.7315E-05
 7.0286E+01 5.5545E-05
 7.0571E+01 5.3822E-05
 7.0857E+01 5.2146E-05
 7.1143E+01 5.0515E-05
 7.1429E+01 4.8929E-05
 7.1714E+01 4.7388E-05
 7.2000E+01 4.5889E-05
 7.2286E+01 4.4431E-05
 7.2571E+01 4.3015E-05
 7.2857E+01 4.1638E-05
 7.3143E+01 4.0301E-05
 7.3429E+01 3.9000E-05
 7.3714E+01 3.7738E-05
 7.4000E+01 3.6511E-05
 7.4286E+01 3.5319E-05
 7.4571E+01 3.4162E-05
 7.4857E+01 3.3039E-05
 7.5143E+01 3.1948E-05
 7.5429E+01 3.0890E-05
 7.5714E+01 2.9863E-05
 7.6000E+01 2.8865E-05
 7.6286E+01 2.7899E-05
 7.6571E+01 2.6961E-05
 7.6857E+01 2.6051E-05
 7.7143E+01 2.5169E-05
 7.7429E+01 2.4313E-05
 7.7714E+01 2.3484E-05
 7.8000E+01 2.2681E-05
 7.8286E+01 2.1901E-05
 7.8571E+01 2.1146E-05
 7.8857E+01 2.0415E-05
 7.9143E+01 1.9706E-05
 7.9429E+01 1.9020E-05
 7.9714E+01 1.8354E-05
 8.0000E+01 1.7710E-05
 8.0286E+01 1.7086E-05
 8.0571E+01 1.6482E-05
 8.0857E+01 1.5898E-05
 8.1143E+01 1.5332E-05
 8.1429E+01 1.4784E-05
 8.1714E+01 1.4255E-05
 8.2000E+01 1.3742E-05
 8.2286E+01 1.3246E-05
 8.2571E+01 1.2767E-05
 8.2857E+01 1.2303E-05
 8.3143E+01 1.1855E-05
 8.3429E+01 1.1421E-05
 8.3714E+01 1.1002E-05
 8.4000E+01 1.0597E-05
 8.4286E+01 1.0206E-05
 8.4571E+01 9.8278E-06
 8.4857E+01 9.4628E-06
 8.5143E+01 9.1095E-06
 8.5429E+01 8.7683E-06
 8.5714E+01 8.4392E-06
 8.6000E+01 8.1209E-06
 8.6286E+01 7.8142E-06
 8.6571E+01 7.5177E-06
 8.6857E+01 7.2318E-06
 8.7143E+01 6.9554E-06
 8.7429E+01 6.6888E-06
 8.7714E+01 6.4318E-06
 8.8000E+01 6.1837E-06
 8.8286E+01 5.9448E-06
 8.8571E+01 5.7143E-06
 8.8857E+01 5.4923E-06
 8.9143E+01 5.2777E-06
 8.9429E+01 5.0712E-06
 8.9714E+01 4.8718E-06
 9.0000E+01 4.6796E-06
 9.0286E+01 4.4946E-06
 9.0571E+01 4.3161E-06
 9.0857E+01 4.1445E-06
 9.1143E+01 3.9791E-06
 9.1429E+01 3.8198E-06
 9.1714E+01 3.6665E-06
 9.2000E+01 3.5189E-06
 9.2286E+01 3.3769E-06
 9.2571E+01 3.2402E-06
 9.2857E+01 3.1085E-06
 9.3143E+01 2.9820E-06
 9.3429E+01 2.8601E-06
 9.3714E+01 2.7430E-06
 9.4000E+01 2.6301E-06
 9.4286E+01 2.5217E-06
 9.4571E+01 2.4174E-06
 9.4857E+01 2.3171E-06
 9.5143E+01 2.2207E-06
 9.5429E+01 2.1281E-06
 9.5714E+01 2.0391E-06
 9.6000E+01 1.9536E-06
 9.6286E+01 1.8714E-06
 9.6571E+01 1.7923E-06
 9.6857E+01 1.7164E-06
 9.7143E+01 1.6434E-06
 9.7429E+01 1.5734E-06
 9.7714E+01 1.5062E-06
 9.8000E+01 1.4417E-06
 9.8286E+01 1.3798E-06
 9.8571E+01 1.3203E-06
 9.8857E+01 1.2633E-06
 9.9143E+01 1.2086E-06
 9.9429E+01 1.1561E-06
 9.9714E+01 1.1057E-06
 1.0000E+02 1.0575E-06
 1.0029E+02 1.0111E-06
 1.0057E+02 9.6664E-07
 1.0086E+02 9.2402E-07
 1.0114E+02 8.8307E-07
 1.0143E+02 8.4396E-07
 1.0171E+02 8.0640E-07
 1.0200E+02 7.7050E-07
 1.0229E+02 7.3604E-07
 1.0257E+02 7.0311E-07
 1.0286E+02 6.7147E-07
 1.0314E+02 6.4125E-07
 1.0343E+02 6.1228E-07
 1.0371E+02 5.8454E-07
 1.0400E+02 5.5799E-07
 1.0429E+02 5.3255E-07
 1.0457E+02 5.0830E-07
 1.0486E+02 4.8509E-07
 1.0514E+02 4.6293E-07
 1.0543E+02 4.4165E-07
 1.0571E+02 4.2130E-07
 1.0600E+02 4.0187E-07
 1.0629E+02 3.8320E-07
 1.0657E+02 3.6535E-07
 1.0686E+02 3.4832E-07
 1.0714E+02 3.3201E-07
 1.0743E+02 3.1652E-07
 1.0771E+02 3.0163E-07
 1.0800E+02 2.8748E-07
 1.0829E+02 2.7391E-07
 1.0857E+02 2.6098E-07
 1.0886E+02 2.4860E-07
 1.0914E+02 2.3674E-07
 1.0943E+02 2.2544E-07
 1.0971E+02 2.1460E-07
 1.1000E+02 2.0430E-07
 1.1029E+02 1.9444E-07
 1.1057E+02 1.8508E-07
 1.1086E+02 1.7608E-07
 1.1114E+02 1.6757E-07
 1.1143E+02 1.5941E-07
 1.1171E+02 1.5164E-07
 1.1200E+02 1.4423E-07
 1.1229E+02 1.3720E-07
 1.1257E+02 1.3044E-07
 1.1286E+02 1.2401E-07
 1.1314E+02 1.1791E-07
 1.1343E+02 1.1206E-07
 1.1371E+02 1.0656E-07
 1.1400E+02 1.0123E-07
 1.1429E+02 9.6226E-08
 1.1457E+02 9.1425E-08
 1.1486E+02 8.6865E-08
 1.1514E+02 8.2499E-08
 1.1543E+02 7.8331E-08
 1.1571E+02 7.4390E-08
 1.1600E+02 7.0624E-08
 1.1629E+02 6.7073E-08
 1.1657E+02 6.3658E-08
 1.1686E+02 6.0444E-08
 1.1714E+02 5.7362E-08
 1.1743E+02 5.4451E-08
 1.1771E+02 5.1660E-08
 1.1800E+02 4.8998E-08
 1.1829E+02 4.6497E-08
 1.1857E+02 4.4101E-08
 1.1886E+02 4.1827E-08
 1.1914E+02 3.9663E-08
 1.1943E+02 3.7602E-08
 1.1971E+02 3.5633E-08
 1.2000E+02 3.3761E-08
 1.2029E+02 3.1992E-08
 1.2057E+02 3.0322E-08
 1.2086E+02 2.8719E-08
 1.2114E+02 2.7204E-08
 1.2143E+02 2.5747E-08
 1.2171E+02 2.4380E-08
 1.2200E+02 2.3088E-08
 1.2229E+02 2.1843E-08
 1.2257E+02 2.0681E-08
 1.2286E+02 1.9562E-08
 1.2314E+02 1.8536E-08
 1.2343E+02 1.7546E-08
 1.2371E+02 1.6602E-08
 1.2400E+02 1.5709E-08
 1.2429E+02 1.4858E-08
 1.2457E+02 1.4055E-08
 1.2486E+02 1.3285E-08
 1.2514E+02 1.2579E-08
 1.2543E+02 1.1882E-08
 1.2571E+02 1.1240E-08
 1.2600E+02 1.0626E-08
 1.2629E+02 1.0034E-08
 1.2657E+02 9.4926E-09
 1.2686E+02 8.9641E-09
 1.2714E+02 8.4763E-09
 1.2743E+02 8.0029E-09
 1.2771E+02 7.5603E-09
 1.2800E+02 7.1466E-09
 1.2829E+02 6.7462E-09
 1.2857E+02 6.3779E-09
 1.2886E+02 6.0088E-09
 1.2914E+02 5.6729E-09
 1.2943E+02 5.3541E-09
 1.2971E+02 5.0530E-09
 1.3000E+02 4.7729E-09
 1.3029E+02 4.5032E-09
 1.3057E+02 4.2468E-09
 1.3086E+02 4.0026E-09
 1.3114E+02 3.7746E-09
 1.3143E+02 3.5556E-09
 1.3171E+02 3.3566E-09
 1.3200E+02 3.1609E-09
 1.3229E+02 2.9838E-09
 1.3257E+02 2.8124E-09
 1.3286E+02 2.6491E-09
 1.3314E+02 2.4942E-09
 1.3343E+02 2.3468E-09
 1.3371E+02 2.2111E-09
 1.3400E+02 2.0797E-09
 1.3429E+02 1.9613E-09
 1.3457E+02 1.8436E-09
 1.3486E+02 1.7392E-09
 1.3514E+02 1.6357E-09
 1.3543E+02 1.5396E-09
 1.3571E+02 1.4494E-09
 1.3600E+02 1.3620E-09
 1.3629E+02 1.2830E-09
 1.3657E+02 1.2070E-09
 1.3686E+02 1.1381E-09
 1.3714E+02 1.0677E-09
 1.3743E+02 1.0069E-09
 1.3771E+02 9.4644E-10
 1.3800E+02 8.8777E-10
 1.3829E+02 8.3698E-10
 1.3857E+02 7.8933E-10
 1.3886E+02 7.4297E-10
 1.3914E+02 6.9978E-10
 1.3943E+02 6.5775E-10
 1.3971E+02 6.1576E-10
 1.4000E+02 5.7909E-10
 1.4029E+02 5.4150E-10
 1.4057E+02 5.0815E-10
 1.4086E+02 4.7576E-10
 1.4114E+02 4.4649E-10
 1.4143E+02 4.1885E-10
 1.4171E+02 3.9289E-10
 1.4200E+02 3.6998E-10
 1.4229E+02 3.4662E-10
 1.4257E+02 3.2576E-10
 1.4286E+02 3.0391E-10
 1.4314E+02 2.8551E-10
 1.4343E+02 2.6829E-10
 1.4371E+02 2.5212E-10
 1.4400E+02 2.3677E-10
 1.4429E+02 2.2119E-10
 1.4457E+02 2.0809E-10
 1.4486E+02 1.9391E-10
 1.4514E+02 1.8219E-10
 1.4543E+02 1.7089E-10
 1.4571E+02 1.5942E-10
 1.4600E+02 1.5053E-10
 1.4629E+02 1.4092E-10
 1.4657E+02 1.3203E-10
 1.4686E+02 1.2386E-10
 1.4714E+02 1.1533E-10
 1.4743E+02 1.0768E-10
 1.4771E+02 1.0166E-10
 1.4800E+02 9.4880E-11
 1.4829E+02 8.8859E-11
 1.4857E+02 8.3677E-11
 1.4886E+02 7.8178E-11
 1.4914E+02 7.3336E-11
 1.4943E+02 6.8423E-11
 1.4971E+02 6.4111E-11
 1.5000E+02 5.9576E-11
 1.5029E+02 5.6061E-11
 1.5057E+02 5.1745E-11
 1.5086E+02 4.8289E-11
 1.5114E+02 4.5214E-11
 1.5143E+02 4.1709E-11
 1.5171E+02 3.9670E-11
 1.5200E+02 3.6398E-11
 1.5229E+02 3.4566E-11
 1.5257E+02 3.2464E-11
 1.5286E+02 3.0195E-11
 1.5314E+02 2.8551E-11
 1.5343E+02 2.6230E-11
 1.5371E+02 2.4616E-11
 1.5400E+02 2.2900E-11
 1.5429E+02 2.1324E-11
 1.5457E+02 1.9559E-11
 1.5486E+02 1.8328E-11
 1.5514E+02 1.7312E-11
 1.5543E+02 1.6053E-11
 1.5571E+02 1.5328E-11
 1.5600E+02 1.4203E-11
 1.5629E+02 1.3073E-11
 1.5657E+02 1.2563E-11
 1.5686E+02 1.1498E-11
 1.5714E+02 1.0653E-11
 1.5743E+02 1.0211E-11
 1.5771E+02 9.3033E-12
 1.5800E+02 8.7587E-12
 1.5829E+02 8.1567E-12
 1.5857E+02 7.6447E-12
 1.5886E+02 7.1842E-12
 1.5914E+02 6.5718E-12
 1.5943E+02 6.1388E-12
 1.5971E+02 5.6828E-12
 1.6000E+02 5.2396E-12
 1.6029E+02 4.8051E-12
 1.6057E+02 4.4083E-12
 1.6086E+02 4.0882E-12
 1.6114E+02 3.7627E-12
 1.6143E+02 3.4422E-12
 1.6171E+02 3.2378E-12
 1.6200E+02 2.9802E-12
 1.6229E+02 2.9234E-12
 1.6257E+02 2.7774E-12
 1.6286E+02 2.6170E-12
 1.6314E+02 2.5139E-12
 1.6343E+02 2.2180E-12
 1.6371E+02 2.1526E-12
 1.6400E+02 2.0344E-12
 1.6429E+02 1.8096E-12
 1.6457E+02 1.6536E-12
 1.6486E+02 1.5730E-12
 1.6514E+02 1.4306E-12
 1.6543E+02 1.3105E-12
 1.6571E+02 1.2451E-12
 1.6600E+02 1.1382E-12
 1.6629E+02 1.0591E-12
 1.6657E+02 9.1277E-13
 1.6686E+02 8.3330E-13
 1.6714E+02 7.8774E-13
 1.6743E+02 7.5786E-13
 1.6771E+02 7.7366E-13
 1.6800E+02 7.1650E-13
 1.6829E+02 6.4051E-13
 1.6857E+02 6.1339E-13
 1.6886E+02 5.6782E-13
 1.6914E+02 4.9284E-13
 1.6943E+02 4.2753E-13
 1.6971E+02 4.1117E-13
 1.7000E+02 4.0719E-13
 1.7029E+02 3.8369E-13
 1.7057E+02 3.3956E-13
 1.7086E+02 3.0719E-13
 1.7114E+02 3.0331E-13
 1.7143E+02 2.4885E-13
 1.7171E+02 2.5468E-13
 1.7200E+02 2.2967E-13
 1.7229E+02 1.8496E-13
 1.7257E+02 1.9399E-13
 1.7286E+02 1.8089E-13
 1.7314E+02 1.8887E-13
 1.7343E+02 1.5464E-13
 1.7371E+02 1.3978E-13
 1.7400E+02 1.3215E-13
 1.7429E+02 1.2613E-13
 1.7457E+02 1.2863E-13
 1.7486E+02 1.0491E-13
 1.7514E+02 1.0555E-13
 1.7543E+02 8.5040E-14
 1.7571E+02 9.0420E-14
 1.7600E+02 9.5137E-14
 1.7629E+02 7.1718E-14
 1.7657E+02 7.3777E-14
 1.7686E+02 6.2856E-14
 1.7714E+02 5.8379E-14
 1.7743E+02 5.2971E-14
 1.7771E+02 4.6663E-14
 1.7800E+02 4.6253E-14
 1.7829E+02 3.0722E-14
 1.7857E+02 2.8513E-14
 1.7886E+02 2.4797E-14
 1.7914E+02 2.2026E-14
 1.7943E+02 3.1351E-14
 1.7971E+02 3.1429E-14
 1.8000E+02 2.6568E-14
 1.8029E+02 2.9735E-14
 1.8057E+02 3.0615E-14
 1.8086E+02 2.1825E-14
 1.8114E+02 2.2662E-14
 1.8143E+02 2.0651E-14
 1.8171E+02 1.9147E-14
 1.8200E+02 1.9883E-14
 1.8229E+02 1.6649E-14
 1.8257E+02 1.1810E-14
 1.8286E+02 5.8264E-15
 1.8314E+02 1.1065E-14
 1.8343E+02 1.1667E-14
 1.8371E+02 7.7084E-15
 1.8400E+02 3.9231E-15
 1.8429E+02 5.3624E-15
 1.8457E+02 9.9482E-15
 1.8486E+02 3.8019E-15
 1.8514E+02 6.1461E-15
 1.8543E+02 6.1401E-15
 1.8571E+02 5.4152E-15
 1.8600E+02 8.5715E-15
 1.8629E+02 5.6452E-15
 1.8657E+02 4.6382E-15
 1.8686E+02 2.8276E-15
 1.8714E+02 4.9202E-15
 1.8743E+02 7.4817E-15
 1.8771E+02 6.4208E-15
 1.8800E+02 9.6525E-15
 1.8829E+02 3.6794E-15
 1.8857E+02 2.5630E-15
 1.8886E+02 7.3309E-15
 1.8914E+02 2.9826E-15
 1.8943E+02 1.1727E-15
 1.8971E+02 3.0716E-16
 1.9000E+02 1.3715E-15
 1.9029E+02 1.6471E-16
 1.9057E+02 2.3804E-15
 1.9086E+02 1.0207E-15
 1.9114E+02 2.5474E-15
 1.9143E+02 9.3070E-15
 1.9171E+02 6.1411E-15
 1.9200E+02 4.3221E-15
 1.9229E+02 4.0546E-15
 1.9257E+02 3.0893E-15
 1.9286E+02 3.9822E-15
 1.9314E+02 6.7730E-16
 1.9343E+02 2.3272E-15
 1.9371E+02 1.7333E-15
 1.9400E+02 1.5267E-16
 1.9429E+02 2.7519E-16
 1.9457E+02 7.4257E-16
 1.9486E+02 1.1204E-17
 1.9514E+02 1.6145E-15
 1.9543E+02 1.6729E-15
 1.9571E+02 4.8373E-17
 1.9600E+02 1.9777E-16
 1.9629E+02 7.8585E-17
 1.9657E+02 1.0163E-16
 1.9686E+02 3.6998E-17
 1.9714E+02 2.4821E-17
 1.9743E+02 1.9251E-17
 1.9771E+02 7.3330E-18
 1.9800E+02 4.3633E-18
 1.9829E+02 2.3156E-18
 1.9857E+02 7.2764E-19
 1.9886E+02 1.1571E-19
 1.9914E+02 9.1251E-21
 1.9943E+02 1.5398E-21
 1.9971E+02 2.3995E-22
 2.0000E+02 1.9977E-21
