 0.0000E+00 2.7027E-03
 2.8571E-01 2.7023E-03
 5.7143E-01 2.7016E-03
 8.5714E-01 2.7007E-03
 1.1429E+00 2.6995E-03
 1.4286E+00 2.6979E-03
 1.7143E+00 2.6959E-03
 2.0000E+00 2.6936E-03
 2.2857E+00 2.6910E-03
 2.5714E+00 2.6880E-03
 2.8571E+00 2.6846E-03
 3.1429E+00 2.6809E-03
 3.4286E+00 2.6768E-03
 3.7143E+00 2.6724E-03
 4.0000E+00 2.6677E-03
 4.2857E+00 2.6626E-03
 4.5714E+00 2.6573E-03
 4.8571E+00 2.6516E-03
 5.1429E+00 2.6455E-03
 5.4286E+00 2.6391E-03
 5.7143E+00 2.6324E-03
 6.0000E+00 2.6254E-03
 6.2857E+00 2.6180E-03
 6.5714E+00 2.6103E-03
 6.8571E+00 2.6023E-03
 7.1429E+00 2.5940E-03
 7.4286E+00 2.5853E-03
 7.7143E+00 2.5764E-03
 8.0000E+00 2.5672E-03
 8.2857E+00 2.5577E-03
 8.5714E+00 2.5479E-03
 8.8571E+00 2.5378E-03
 9.1429E+00 2.5274E-03
 9.4286E+00 2.5167E-03
 9.7143E+00 2.5057E-03
 1.0000E+01 2.4945E-03
 1.0286E+01 2.4829E-03
 1.0571E+01 2.4712E-03
 1.0857E+01 2.4591E-03
 1.1143E+01 2.4468E-03
 1.1429E+01 2.4343E-03
 1.1714E+01 2.4215E-03
 1.2000E+01 2.4084E-03
 1.2286E+01 2.3951E-03
 1.2571E+01 2.3816E-03
 1.2857E+01 2.3678E-03
 1.3143E+01 2.3538E-03
 1.3429E+01 2.3396E-03
 1.3714E+01 2.3251E-03
 1.4000E+01 2.3105E-03
 1.4286E+01 2.2957E-03
 1.4571E+01 2.2806E-03
 1.4857E+01 2.2654E-03
 1.5143E+01 2.2499E-03
 1.5429E+01 2.2343E-03
 1.5714E+01 2.2185E-03
 1.6000E+01 2.2026E-03
 1.6286E+01 2.1864E-03
 1.6571E+01 2.1701E-03
 1.6857E+01 2.1537E-03
 1.7143E+01 2.1371E-03
 1.7429E+01 2.1203E-03
 1.7714E+01 2.1034E-03
 1.8000E+01 2.0864E-03
 1.8286E+01 2.0693E-03
 1.8571E+01 2.0520E-03
 1.8857E+01 2.0346E-03
 1.9143E+01 2.0171E-03
 1.9429E+01 1.9995E-03
 1.9714E+01 1.9818E-03
 2.0000E+01 1.9639E-03
 2.0286E+01 1.9460E-03
 2.0571E+01 1.9280E-03
 2.0857E+01 1.9099E-03
 2.1143E+01 1.8918E-03
 2.1429E+01 1.8736E-03
 2.1714E+01 1.8553E-03
 2.2000E+01 1.8369E-03
 2.2286E+01 1.8185E-03
 2.2571E+01 1.8001E-03
 2.2857E+01 1.7816E-03
 2.3143E+01 1.7630E-03
 2.3429E+01 1.7445E-03
 2.3714E+01 1.7259E-03
 2.4000E+01 1.7072E-03
 2.4286E+01 1.6886E-03
 2.4571E+01 1.6699E-03
 2.4857E+01 1.6513E-03
 2.5143E+01 1.6326E-03
 2.5429E+01 1.6139E-03
 2.5714E+01 1.5953E-03
 2.6000E+01 1.5766E-03
 2.6286E+01 1.5580E-03
 2.6571E+01 1.5394E-03
 2.6857E+01 1.5208E-03
 2.7143E+01 1.5022E-03
 2.7429E+01 1.4837E-03
 2.7714E+01 1.4652E-03
 2.8000E+01 1.4468E-03
 2.8286E+01 1.4284E-03
 2.8571E+01 1.4101E-03
 2.8857E+01 1.3918E-03
 2.9143E+01 1.3735E-03
 2.9429E+01 1.3554E-03
 2.9714E+01 1.3372E-03
 3.0000E+01 1.3192E-03
 3.0286E+01 1.3012E-03
 3.0571E+01 1.2834E-03
 3.0857E+01 1.2656E-03
 3.1143E+01 1.2478E-03
 3.1429E+01 1.2302E-03
 3.1714E+01 1.2127E-03
 3.2000E+01 1.1952E-03
 3.2286E+01 1.1779E-03
 3.2571E+01 1.1606E-03
 3.2857E+01 1.1435E-03
 3.3143E+01 1.1264E-03
 3.3429E+01 1.1095E-03
 3.3714E+01 1.0927E-03
 3.4000E+01 1.0760E-03
 3.4286E+01 1.0594E-03
 3.4571E+01 1.0430E-03
 3.4857E+01 1.0267E-03
 3.5143E+01 1.0104E-03
 3.5429E+01 9.9436E-04
 3.5714E+01 9.7840E-04
 3.6000E+01 9.6257E-04
 3.6286E+01 9.4687E-04
 3.6571E+01 9.3131E-04
 3.6857E+01 9.1588E-04
 3.7143E+01 9.0060E-04
 3.7429E+01 8.8545E-04
 3.7714E+01 8.7044E-04
 3.8000E+01 8.5559E-04
 3.8286E+01 8.4087E-04
 3.8571E+01 8.2630E-04
 3.8857E+01 8.1187E-04
 3.9143E+01 7.9759E-04
 3.9429E+01 7.8346E-04
 3.9714E+01 7.6949E-04
 4.0000E+01 7.5566E-04
 4.0286E+01 7.4199E-04
 4.0571E+01 7.2847E-04
 4.0857E+01 7.1510E-04
 4.1143E+01 7.0189E-04
 4.1429E+01 6.8883E-04
 4.1714E+01 6.7592E-04
 4.2000E+01 6.6317E-04
 4.2286E+01 6.5057E-04
 4.2571E+01 6.3813E-04
 4.2857E+01 6.2585E-04
 4.3143E+01 6.1372E-04
 4.3429E+01 6.0175E-04
 4.3714E+01 5.8993E-04
 4.4000E+01 5.7828E-04
 4.4286E+01 5.6678E-04
 4.4571E+01 5.5544E-04
 4.4857E+01 5.4426E-04
 4.5143E+01 5.3323E-04
 4.5429E+01 5.2235E-04
 4.5714E+01 5.1163E-04
 4.6000E+01 5.0107E-04
 4.6286E+01 4.9066E-04
 4.6571E+01 4.8040E-04
 4.6857E+01 4.7030E-04
 4.7143E+01 4.6035E-04
 4.7429E+01 4.5055E-04
 4.7714E+01 4.4091E-04
 4.8000E+01 4.3141E-04
 4.8286E+01 4.2206E-04
 4.8571E+01 4.1286E-04
 4.8857E+01 4.0381E-04
 4.9143E+01 3.9491E-04
 4.9429E+01 3.8615E-04
 4.9714E+01 3.7754E-04
 5.0000E+01 3.6907E-04
 5.0286E+01 3.6075E-04
 5.0571E+01 3.5256E-04
 5.0857E+01 3.4452E-04
 5.1143E+01 3.3662E-04
 5.1429E+01 3.2886E-04
 5.1714E+01 3.2123E-04
 5.2000E+01 3.1374E-04
 5.2286E+01 3.0639E-04
 5.2571E+01 2.9917E-04
 5.2857E+01 2.9208E-04
 5.3143E+01 2.8512E-04
 5.3429E+01 2.7829E-04
 5.3714E+01 2.7159E-04
 5.4000E+01 2.6501E-04
 5.4286E+01 2.5856E-04
 5.4571E+01 2.5224E-04
 5.4857E+01 2.4604E-04
 5.5143E+01 2.3996E-04
 5.5429E+01 2.3400E-04
 5.5714E+01 2.2816E-04
 5.6000E+01 2.2243E-04
 5.6286E+01 2.1682E-04
 5.6571E+01 2.1133E-04
 5.6857E+01 2.0595E-04
 5.7143E+01 2.0068E-04
 5.7429E+01 1.9552E-04
 5.7714E+01 1.9046E-04
 5.8000E+01 1.8551E-04
 5.8286E+01 1.8067E-04
 5.8571E+01 1.7593E-04
 5.8857E+01 1.7129E-04
 5.9143E+01 1.6676E-04
 5.9429E+01 1.6232E-04
 5.9714E+01 1.5798E-04
 6.0000E+01 1.5373E-04
 6.0286E+01 1.4959E-04
 6.0571E+01 1.4553E-04
 6.0857E+01 1.4156E-04
 6.1143E+01 1.3769E-04
 6.1429E+01 1.3390E-04
 6.1714E+01 1.3021E-04
 6.2000E+01 1.2659E-04
 6.2286E+01 1.2306E-04
 6.2571E+01 1.1962E-04
 6.2857E+01 1.1625E-04
 6.3143E+01 1.1297E-04
 6.3429E+01 1.0976E-04
 6.3714E+01 1.0663E-04
 6.4000E+01 1.0358E-04
 6.4286E+01 1.0060E-04
 6.4571E+01 9.7695E-05
 6.4857E+01 9.4861E-05
 6.5143E+01 9.2098E-05
 6.5429E+01 8.9403E-05
 6.5714E+01 8.6777E-05
 6.6000E+01 8.4216E-05
 6.6286E+01 8.1721E-05
 6.6571E+01 7.9288E-05
 6.6857E+01 7.6918E-05
 6.7143E+01 7.4609E-05
 6.7429E+01 7.2360E-05
 6.7714E+01 7.0170E-05
 6.8000E+01 6.8037E-05
 6.8286E+01 6.5960E-05
 6.8571E+01 6.3938E-05
 6.8857E+01 6.1970E-05
 6.9143E+01 6.0054E-05
 6.9429E+01 5.8190E-05
 6.9714E+01 5.6377E-05
 7.0000E+01 5.4613E-05
 7.0286E+01 5.2897E-05
 7.0571E+01 5.1229E-05
 7.0857E+01 4.9606E-05
 7.1143E+01 4.8029E-05
 7.1429E+01 4.6497E-05
 7.1714E+01 4.5008E-05
 7.2000E+01 4.3560E-05
 7.2286E+01 4.2154E-05
 7.2571E+01 4.0788E-05
 7.2857E+01 3.9460E-05
 7.3143E+01 3.8171E-05
 7.3429E+01 3.6918E-05
 7.3714E+01 3.5703E-05
 7.4000E+01 3.4522E-05
 7.4286E+01 3.3377E-05
 7.4571E+01 3.2265E-05
 7.4857E+01 3.1187E-05
 7.5143E+01 3.0141E-05
 7.5429E+01 2.9126E-05
 7.5714E+01 2.8142E-05
 7.6000E+01 2.7187E-05
 7.6286E+01 2.6262E-05
 7.6571E+01 2.5364E-05
 7.6857E+01 2.4494E-05
 7.7143E+01 2.3651E-05
 7.7429E+01 2.2834E-05
 7.7714E+01 2.2042E-05
 7.8000E+01 2.1274E-05
 7.8286E+01 2.0531E-05
 7.8571E+01 1.9812E-05
 7.8857E+01 1.9115E-05
 7.9143E+01 1.8441E-05
 7.9429E+01 1.7787E-05
 7.9714E+01 1.7155E-05
 8.0000E+01 1.6543E-05
 8.0286E+01 1.5951E-05
 8.0571E+01 1.5378E-05
 8.0857E+01 1.4823E-05
 8.1143E+01 1.4287E-05
 8.1429E+01 1.3769E-05
 8.1714E+01 1.3267E-05
 8.2000E+01 1.2782E-05
 8.2286E+01 1.2314E-05
 8.2571E+01 1.1861E-05
 8.2857E+01 1.1422E-05
 8.3143E+01 1.0999E-05
 8.3429E+01 1.0590E-05
 8.3714E+01 1.0195E-05
 8.4000E+01 9.8126E-06
 8.4286E+01 9.4442E-06
 8.4571E+01 9.0884E-06
 8.4857E+01 8.7447E-06
 8.5143E+01 8.4130E-06
 8.5429E+01 8.0927E-06
 8.5714E+01 7.7837E-06
 8.6000E+01 7.4853E-06
 8.6286E+01 7.1975E-06
 8.6571E+01 6.9196E-06
 8.6857E+01 6.6522E-06
 8.7143E+01 6.3940E-06
 8.7429E+01 6.1454E-06
 8.7714E+01 5.9051E-06
 8.8000E+01 5.6739E-06
 8.8286E+01 5.4510E-06
 8.8571E+01 5.2362E-06
 8.8857E+01 5.0290E-06
 8.9143E+01 4.8293E-06
 8.9429E+01 4.6370E-06
 8.9714E+01 4.4514E-06
 9.0000E+01 4.2733E-06
 9.0286E+01 4.1015E-06
 9.0571E+01 3.9364E-06
 9.0857E+01 3.7773E-06
 9.1143E+01 3.6242E-06
 9.1429E+01 3.4770E-06
 9.1714E+01 3.3350E-06
 9.2000E+01 3.1987E-06
 9.2286E+01 3.0674E-06
 9.2571E+01 2.9410E-06
 9.2857E+01 2.8196E-06
 9.3143E+01 2.7029E-06
 9.3429E+01 2.5906E-06
 9.3714E+01 2.4826E-06
 9.4000E+01 2.3788E-06
 9.4286E+01 2.2790E-06
 9.4571E+01 2.1831E-06
 9.4857E+01 2.0912E-06
 9.5143E+01 2.0027E-06
 9.5429E+01 1.9177E-06
 9.5714E+01 1.8361E-06
 9.6000E+01 1.7576E-06
 9.6286E+01 1.6824E-06
 9.6571E+01 1.6102E-06
 9.6857E+01 1.5408E-06
 9.7143E+01 1.4742E-06
 9.7429E+01 1.4104E-06
 9.7714E+01 1.3491E-06
 9.8000E+01 1.2903E-06
 9.8286E+01 1.2339E-06
 9.8571E+01 1.1798E-06
 9.8857E+01 1.1279E-06
 9.9143E+01 1.0782E-06
 9.9429E+01 1.0306E-06
 9.9714E+01 9.8505E-07
 1.0000E+02 9.4134E-07
 1.0029E+02 8.9948E-07
 1.0057E+02 8.5938E-07
 1.0086E+02 8.2082E-07
 1.0114E+02 7.8404E-07
 1.0143E+02 7.4869E-07
 1.0171E+02 7.1503E-07
 1.0200E+02 6.8259E-07
 1.0229E+02 6.5169E-07
 1.0257E+02 6.2203E-07
 1.0286E+02 5.9360E-07
 1.0314E+02 5.6644E-07
 1.0343E+02 5.4038E-07
 1.0371E+02 5.1560E-07
 1.0400E+02 4.9175E-07
 1.0429E+02 4.6904E-07
 1.0457E+02 4.4724E-07
 1.0486E+02 4.2646E-07
 1.0514E+02 4.0651E-07
 1.0543E+02 3.8751E-07
 1.0571E+02 3.6933E-07
 1.0600E+02 3.5193E-07
 1.0629E+02 3.3541E-07
 1.0657E+02 3.1955E-07
 1.0686E+02 3.0439E-07
 1.0714E+02 2.8995E-07
 1.0743E+02 2.7609E-07
 1.0771E+02 2.6282E-07
 1.0800E+02 2.5024E-07
 1.0829E+02 2.3818E-07
 1.0857E+02 2.2676E-07
 1.0886E+02 2.1577E-07
 1.0914E+02 2.0534E-07
 1.0943E+02 1.9534E-07
 1.0971E+02 1.8583E-07
 1.1000E+02 1.7681E-07
 1.1029E+02 1.6813E-07
 1.1057E+02 1.5997E-07
 1.1086E+02 1.5207E-07
 1.1114E+02 1.4462E-07
 1.1143E+02 1.3751E-07
 1.1171E+02 1.3070E-07
 1.1200E+02 1.2424E-07
 1.1229E+02 1.1804E-07
 1.1257E+02 1.1219E-07
 1.1286E+02 1.0657E-07
 1.1314E+02 1.0126E-07
 1.1343E+02 9.6157E-08
 1.1371E+02 9.1325E-08
 1.1400E+02 8.6724E-08
 1.1429E+02 8.2308E-08
 1.1457E+02 7.8145E-08
 1.1486E+02 7.4160E-08
 1.1514E+02 7.0394E-08
 1.1543E+02 6.6796E-08
 1.1571E+02 6.3382E-08
 1.1600E+02 6.0121E-08
 1.1629E+02 5.7013E-08
 1.1657E+02 5.4066E-08
 1.1686E+02 5.1248E-08
 1.1714E+02 4.8580E-08
 1.1743E+02 4.6063E-08
 1.1771E+02 4.3675E-08
 1.1800E+02 4.1392E-08
 1.1829E+02 3.9239E-08
 1.1857E+02 3.7168E-08
 1.1886E+02 3.5211E-08
 1.1914E+02 3.3363E-08
 1.1943E+02 3.1578E-08
 1.1971E+02 2.9912E-08
 1.2000E+02 2.8322E-08
 1.2029E+02 2.6821E-08
 1.2057E+02 2.5392E-08
 1.2086E+02 2.4035E-08
 1.2114E+02 2.2746E-08
 1.2143E+02 2.1528E-08
 1.2171E+02 2.0381E-08
 1.2200E+02 1.9271E-08
 1.2229E+02 1.8245E-08
 1.2257E+02 1.7245E-08
 1.2286E+02 1.6313E-08
 1.2314E+02 1.5421E-08
 1.2343E+02 1.4577E-08
 1.2371E+02 1.3788E-08
 1.2400E+02 1.3024E-08
 1.2429E+02 1.2310E-08
 1.2457E+02 1.1641E-08
 1.2486E+02 1.1003E-08
 1.2514E+02 1.0393E-08
 1.2543E+02 9.8296E-09
 1.2571E+02 9.2769E-09
 1.2600E+02 8.7647E-09
 1.2629E+02 8.2768E-09
 1.2657E+02 7.8114E-09
 1.2686E+02 7.3708E-09
 1.2714E+02 6.9568E-09
 1.2743E+02 6.5631E-09
 1.2771E+02 6.1868E-09
 1.2800E+02 5.8407E-09
 1.2829E+02 5.4970E-09
 1.2857E+02 5.1926E-09
 1.2886E+02 4.8970E-09
 1.2914E+02 4.6134E-09
 1.2943E+02 4.3511E-09
 1.2971E+02 4.0983E-09
 1.3000E+02 3.8668E-09
 1.3029E+02 3.6413E-09
 1.3057E+02 3.4328E-09
 1.3086E+02 3.2356E-09
 1.3114E+02 3.0517E-09
 1.3143E+02 2.8748E-09
 1.3171E+02 2.7106E-09
 1.3200E+02 2.5560E-09
 1.3229E+02 2.4064E-09
 1.3257E+02 2.2674E-09
 1.3286E+02 2.1323E-09
 1.3314E+02 2.0025E-09
 1.3343E+02 1.8850E-09
 1.3371E+02 1.7776E-09
 1.3400E+02 1.6695E-09
 1.3429E+02 1.5723E-09
 1.3457E+02 1.4788E-09
 1.3486E+02 1.3927E-09
 1.3514E+02 1.3118E-09
 1.3543E+02 1.2316E-09
 1.3571E+02 1.1605E-09
 1.3600E+02 1.0881E-09
 1.3629E+02 1.0232E-09
 1.3657E+02 9.6085E-10
 1.3686E+02 9.0142E-10
 1.3714E+02 8.4720E-10
 1.3743E+02 7.9265E-10
 1.3771E+02 7.4801E-10
 1.3800E+02 7.0096E-10
 1.3829E+02 6.5761E-10
 1.3857E+02 6.1822E-10
 1.3886E+02 5.7945E-10
 1.3914E+02 5.4679E-10
 1.3943E+02 5.1247E-10
 1.3971E+02 4.8121E-10
 1.4000E+02 4.5058E-10
 1.4029E+02 4.2158E-10
 1.4057E+02 3.9607E-10
 1.4086E+02 3.7221E-10
 1.4114E+02 3.4867E-10
 1.4143E+02 3.2788E-10
 1.4171E+02 3.0821E-10
 1.4200E+02 2.8872E-10
 1.4229E+02 2.7128E-10
 1.4257E+02 2.5312E-10
 1.4286E+02 2.3705E-10
 1.4314E+02 2.2148E-10
 1.4343E+02 2.0743E-10
 1.4371E+02 1.9478E-10
 1.4400E+02 1.8309E-10
 1.4429E+02 1.7180E-10
 1.4457E+02 1.6095E-10
 1.4486E+02 1.5069E-10
 1.4514E+02 1.4053E-10
 1.4543E+02 1.3220E-10
 1.4571E+02 1.2353E-10
 1.4600E+02 1.1522E-10
 1.4629E+02 1.0786E-10
 1.4657E+02 1.0087E-10
 1.4686E+02 9.4229E-11
 1.4714E+02 8.8237E-11
 1.4743E+02 8.1940E-11
 1.4771E+02 7.6124E-11
 1.4800E+02 7.1459E-11
 1.4829E+02 6.6729E-11
 1.4857E+02 6.1956E-11
 1.4886E+02 5.7807E-11
 1.4914E+02 5.4848E-11
 1.4943E+02 5.1511E-11
 1.4971E+02 4.8131E-11
 1.5000E+02 4.5010E-11
 1.5029E+02 4.2175E-11
 1.5057E+02 3.9393E-11
 1.5086E+02 3.7042E-11
 1.5114E+02 3.4782E-11
 1.5143E+02 3.2174E-11
 1.5171E+02 2.9970E-11
 1.5200E+02 2.7748E-11
 1.5229E+02 2.6077E-11
 1.5257E+02 2.4227E-11
 1.5286E+02 2.2412E-11
 1.5314E+02 2.0807E-11
 1.5343E+02 1.9496E-11
 1.5371E+02 1.8392E-11
 1.5400E+02 1.6945E-11
 1.5429E+02 1.5596E-11
 1.5457E+02 1.4409E-11
 1.5486E+02 1.3790E-11
 1.5514E+02 1.2900E-11
 1.5543E+02 1.1913E-11
 1.5571E+02 1.1202E-11
 1.5600E+02 1.0281E-11
 1.5629E+02 9.7216E-12
 1.5657E+02 9.2171E-12
 1.5686E+02 8.3785E-12
 1.5714E+02 7.7806E-12
 1.5743E+02 7.2501E-12
 1.5771E+02 6.7730E-12
 1.5800E+02 6.2645E-12
 1.5829E+02 5.8784E-12
 1.5857E+02 5.5174E-12
 1.5886E+02 4.9303E-12
 1.5914E+02 4.7937E-12
 1.5943E+02 4.4904E-12
 1.5971E+02 4.0818E-12
 1.6000E+02 3.7465E-12
 1.6029E+02 3.4826E-12
 1.6057E+02 3.3084E-12
 1.6086E+02 2.9843E-12
 1.6114E+02 2.8615E-12
 1.6143E+02 2.6560E-12
 1.6171E+02 2.4745E-12
 1.6200E+02 2.3183E-12
 1.6229E+02 2.1291E-12
 1.6257E+02 1.9842E-12
 1.6286E+02 1.8557E-12
 1.6314E+02 1.7463E-12
 1.6343E+02 1.5863E-12
 1.6371E+02 1.4664E-12
 1.6400E+02 1.3455E-12
 1.6429E+02 1.2638E-12
 1.6457E+02 1.1469E-12
 1.6486E+02 1.0490E-12
 1.6514E+02 1.0040E-12
 1.6543E+02 9.0069E-13
 1.6571E+02 8.1000E-13
 1.6600E+02 7.5817E-13
 1.6629E+02 7.3430E-13
 1.6657E+02 6.8002E-13
 1.6686E+02 6.3259E-13
 1.6714E+02 5.9609E-13
 1.6743E+02 5.4977E-13
 1.6771E+02 5.6028E-13
 1.6800E+02 4.9583E-13
 1.6829E+02 4.4809E-13
 1.6857E+02 4.2756E-13
 1.6886E+02 3.4799E-13
 1.6914E+02 3.6858E-13
 1.6943E+02 3.3584E-13
 1.6971E+02 2.9215E-13
 1.7000E+02 2.8622E-13
 1.7029E+02 2.5894E-13
 1.7057E+02 2.4217E-13
 1.7086E+02 1.9647E-13
 1.7114E+02 2.0118E-13
 1.7143E+02 1.6939E-13
 1.7171E+02 1.4290E-13
 1.7200E+02 1.5633E-13
 1.7229E+02 1.3225E-13
 1.7257E+02 1.1877E-13
 1.7286E+02 1.0282E-13
 1.7314E+02 1.2022E-13
 1.7343E+02 1.2817E-13
 1.7371E+02 1.2478E-13
 1.7400E+02 1.3465E-13
 1.7429E+02 1.0137E-13
 1.7457E+02 9.4940E-14
 1.7486E+02 8.6746E-14
 1.7514E+02 6.9561E-14
 1.7543E+02 6.7627E-14
 1.7571E+02 4.5702E-14
 1.7600E+02 4.1731E-14
 1.7629E+02 3.2511E-14
 1.7657E+02 3.4051E-14
 1.7686E+02 3.4004E-14
 1.7714E+02 2.3706E-14
 1.7743E+02 2.6382E-14
 1.7771E+02 2.4908E-14
 1.7800E+02 4.1174E-14
 1.7829E+02 3.6711E-14
 1.7857E+02 3.9287E-14
 1.7886E+02 3.5641E-14
 1.7914E+02 2.5447E-14
 1.7943E+02 3.6441E-14
 1.7971E+02 1.8305E-14
 1.8000E+02 1.7804E-14
 1.8029E+02 2.0351E-14
 1.8057E+02 9.2785E-15
 1.8086E+02 1.0815E-14
 1.8114E+02 1.2577E-14
 1.8143E+02 1.4245E-14
 1.8171E+02 9.4874E-15
 1.8200E+02 5.1506E-15
 1.8229E+02 6.0267E-15
 1.8257E+02 5.9449E-15
 1.8286E+02 2.2568E-15
 1.8314E+02 6.4293E-15
 1.8343E+02 5.7011E-15
 1.8371E+02 6.0528E-15
 1.8400E+02 1.2109E-14
 1.8429E+02 6.0418E-15
 1.8457E+02 1.1081E-14
 1.8486E+02 1.4356E-14
 1.8514E+02 8.4688E-15
 1.8543E+02 7.3506E-15
 1.8571E+02 3.2541E-15
 1.8600E+02 1.0075E-15
 1.8629E+02 3.6234E-15
 1.8657E+02 5.4259E-15
 1.8686E+02 2.0385E-15
 1.8714E+02 2.3888E-15
 1.8743E+02 4.1629E-15
 1.8771E+02 1.0997E-15
 1.8800E+02 1.9633E-16
 1.8829E+02 9.9408E-17
 1.8857E+02 1.9480E-16
 1.8886E+02 5.1453E-16
 1.8914E+02 2.2246E-15
 1.8943E+02 4.2241E-15
 1.8971E+02 2.3742E-15
 1.9000E+02 2.1203E-15
 1.9029E+02 4.5038E-15
 1.9057E+02 3.9016E-15
 1.9086E+02 5.3974E-15
 1.9114E+02 6.9200E-15
 1.9143E+02 3.8213E-15
 1.9171E+02 1.6136E-15
 1.9200E+02 1.4285E-15
 1.9229E+02 7.8018E-16
 1.9257E+02 5.5010E-16
 1.9286E+02 5.1685E-16
 1.9314E+02 5.5128E-16
 1.9343E+02 6.6039E-16
 1.9371E+02 4.6841E-16
 1.9400E+02 6.1742E-16
 1.9429E+02 1.1458E-15
 1.9457E+02 1.3121E-15
 1.9486E+02 1.4921E-15
 1.9514E+02 1.0810E-15
 1.9543E+02 2.2038E-15
 1.9571E+02 3.7688E-15
 1.9600E+02 8.0122E-16
 1.9629E+02 2.6198E-16
 1.9657E+02 7.1613E-16
 1.9686E+02 3.1032E-16
 1.9714E+02 3.2315E-16
 1.9743E+02 9.8118E-17
 1.9771E+02 9.3830E-18
 1.9800E+02 1.1798E-17
 1.9829E+02 7.6951E-18
 1.9857E+02 2.2032E-18
 1.9886E+02 2.7584E-19
 1.9914E+02 1.5918E-20
 1.9943E+02 1.9442E-20
 1.9971E+02 5.9109E-21
 2.0000E+02 7.0133E-21
