 0.0000E+00 2.7715E-03
 2.8571E-01 2.7711E-03
 5.7143E-01 2.7704E-03
 8.5714E-01 2.7695E-03
 1.1429E+00 2.7682E-03
 1.4286E+00 2.7665E-03
 1.7143E+00 2.7645E-03
 2.0000E+00 2.7621E-03
 2.2857E+00 2.7594E-03
 2.5714E+00 2.7562E-03
 2.8571E+00 2.7527E-03
 3.1429E+00 2.7489E-03
 3.4286E+00 2.7446E-03
 3.7143E+00 2.7401E-03
 4.0000E+00 2.7351E-03
 4.2857E+00 2.7298E-03
 4.5714E+00 2.7242E-03
 4.8571E+00 2.7182E-03
 5.1429E+00 2.7118E-03
 5.4286E+00 2.7051E-03
 5.7143E+00 2.6981E-03
 6.0000E+00 2.6907E-03
 6.2857E+00 2.6829E-03
 6.5714E+00 2.6748E-03
 6.8571E+00 2.6664E-03
 7.1429E+00 2.6577E-03
 7.4286E+00 2.6486E-03
 7.7143E+00 2.6392E-03
 8.0000E+00 2.6295E-03
 8.2857E+00 2.6195E-03
 8.5714E+00 2.6092E-03
 8.8571E+00 2.5986E-03
 9.1429E+00 2.5876E-03
 9.4286E+00 2.5764E-03
 9.7143E+00 2.5648E-03
 1.0000E+01 2.5530E-03
 1.0286E+01 2.5409E-03
 1.0571E+01 2.5285E-03
 1.0857E+01 2.5158E-03
 1.1143E+01 2.5029E-03
 1.1429E+01 2.4897E-03
 1.1714E+01 2.4762E-03
 1.2000E+01 2.4625E-03
 1.2286E+01 2.4486E-03
 1.2571E+01 2.4344E-03
 1.2857E+01 2.4200E-03
 1.3143E+01 2.4053E-03
 1.3429E+01 2.3904E-03
 1.3714E+01 2.3753E-03
 1.4000E+01 2.3600E-03
 1.4286E+01 2.3445E-03
 1.4571E+01 2.3287E-03
 1.4857E+01 2.3128E-03
 1.5143E+01 2.2966E-03
 1.5429E+01 2.2803E-03
 1.5714E+01 2.2638E-03
 1.6000E+01 2.2471E-03
 1.6286E+01 2.2302E-03
 1.6571E+01 2.2132E-03
 1.6857E+01 2.1960E-03
 1.7143E+01 2.1786E-03
 1.7429E+01 2.1611E-03
 1.7714E+01 2.1435E-03
 1.8000E+01 2.1257E-03
 1.8286E+01 2.1078E-03
 1.8571E+01 2.0897E-03
 1.8857E+01 2.0715E-03
 1.9143E+01 2.0533E-03
 1.9429E+01 2.0349E-03
 1.9714E+01 2.0164E-03
 2.0000E+01 1.9978E-03
 2.0286E+01 1.9791E-03
 2.0571E+01 1.9604E-03
 2.0857E+01 1.9415E-03
 2.1143E+01 1.9226E-03
 2.1429E+01 1.9036E-03
 2.1714E+01 1.8846E-03
 2.2000E+01 1.8655E-03
 2.2286E+01 1.8463E-03
 2.2571E+01 1.8271E-03
 2.2857E+01 1.8078E-03
 2.3143E+01 1.7885E-03
 2.3429E+01 1.7692E-03
 2.3714E+01 1.7498E-03
 2.4000E+01 1.7305E-03
 2.4286E+01 1.7111E-03
 2.4571E+01 1.6917E-03
 2.4857E+01 1.6724E-03
 2.5143E+01 1.6530E-03
 2.5429E+01 1.6336E-03
 2.5714E+01 1.6142E-03
 2.6000E+01 1.5949E-03
 2.6286E+01 1.5755E-03
 2.6571E+01 1.5563E-03
 2.6857E+01 1.5370E-03
 2.7143E+01 1.5178E-03
 2.7429E+01 1.4986E-03
 2.7714E+01 1.4794E-03
 2.8000E+01 1.4603E-03
 2.8286E+01 1.4413E-03
 2.8571E+01 1.4223E-03
 2.8857E+01 1.4034E-03
 2.9143E+01 1.3845E-03
 2.9429E+01 1.3657E-03
 2.9714E+01 1.3470E-03
 3.0000E+01 1.3284E-03
 3.0286E+01 1.3098E-03
 3.0571E+01 1.2914E-03
 3.0857E+01 1.2730E-03
 3.1143E+01 1.2548E-03
 3.1429E+01 1.2366E-03
 3.1714E+01 1.2185E-03
 3.2000E+01 1.2005E-03
 3.2286E+01 1.1827E-03
 3.2571E+01 1.1649E-03
 3.2857E+01 1.1473E-03
 3.3143E+01 1.1298E-03
 3.3429E+01 1.1123E-03
 3.3714E+01 1.0951E-03
 3.4000E+01 1.0779E-03
 3.4286E+01 1.0609E-03
 3.4571E+01 1.0440E-03
 3.4857E+01 1.0272E-03
 3.5143E+01 1.0106E-03
 3.5429E+01 9.9407E-04
 3.5714E+01 9.7771E-04
 3.6000E+01 9.6149E-04
 3.6286E+01 9.4542E-04
 3.6571E+01 9.2949E-04
 3.6857E+01 9.1371E-04
 3.7143E+01 8.9807E-04
 3.7429E+01 8.8258E-04
 3.7714E+01 8.6724E-04
 3.8000E+01 8.5206E-04
 3.8286E+01 8.3703E-04
 3.8571E+01 8.2215E-04
 3.8857E+01 8.0743E-04
 3.9143E+01 7.9286E-04
 3.9429E+01 7.7846E-04
 3.9714E+01 7.6422E-04
 4.0000E+01 7.5015E-04
 4.0286E+01 7.3623E-04
 4.0571E+01 7.2247E-04
 4.0857E+01 7.0887E-04
 4.1143E+01 6.9544E-04
 4.1429E+01 6.8217E-04
 4.1714E+01 6.6907E-04
 4.2000E+01 6.5613E-04
 4.2286E+01 6.4335E-04
 4.2571E+01 6.3074E-04
 4.2857E+01 6.1829E-04
 4.3143E+01 6.0601E-04
 4.3429E+01 5.9389E-04
 4.3714E+01 5.8194E-04
 4.4000E+01 5.7015E-04
 4.4286E+01 5.5853E-04
 4.4571E+01 5.4707E-04
 4.4857E+01 5.3577E-04
 4.5143E+01 5.2464E-04
 4.5429E+01 5.1366E-04
 4.5714E+01 5.0286E-04
 4.6000E+01 4.9221E-04
 4.6286E+01 4.8172E-04
 4.6571E+01 4.7140E-04
 4.6857E+01 4.6123E-04
 4.7143E+01 4.5123E-04
 4.7429E+01 4.4139E-04
 4.7714E+01 4.3170E-04
 4.8000E+01 4.2216E-04
 4.8286E+01 4.1278E-04
 4.8571E+01 4.0356E-04
 4.8857E+01 3.9449E-04
 4.9143E+01 3.8557E-04
 4.9429E+01 3.7681E-04
 4.9714E+01 3.6819E-04
 5.0000E+01 3.5973E-04
 5.0286E+01 3.5141E-04
 5.0571E+01 3.4324E-04
 5.0857E+01 3.3521E-04
 5.1143E+01 3.2733E-04
 5.1429E+01 3.1959E-04
 5.1714E+01 3.1200E-04
 5.2000E+01 3.0454E-04
 5.2286E+01 2.9722E-04
 5.2571E+01 2.9003E-04
 5.2857E+01 2.8299E-04
 5.3143E+01 2.7608E-04
 5.3429E+01 2.6930E-04
 5.3714E+01 2.6265E-04
 5.4000E+01 2.5613E-04
 5.4286E+01 2.4974E-04
 5.4571E+01 2.4347E-04
 5.4857E+01 2.3734E-04
 5.5143E+01 2.3132E-04
 5.5429E+01 2.2543E-04
 5.5714E+01 2.1966E-04
 5.6000E+01 2.1401E-04
 5.6286E+01 2.0848E-04
 5.6571E+01 2.0306E-04
 5.6857E+01 1.9776E-04
 5.7143E+01 1.9257E-04
 5.7429E+01 1.8749E-04
 5.7714E+01 1.8252E-04
 5.8000E+01 1.7766E-04
 5.8286E+01 1.7291E-04
 5.8571E+01 1.6826E-04
 5.8857E+01 1.6371E-04
 5.9143E+01 1.5927E-04
 5.9429E+01 1.5492E-04
 5.9714E+01 1.5068E-04
 6.0000E+01 1.4653E-04
 6.0286E+01 1.4247E-04
 6.0571E+01 1.3851E-04
 6.0857E+01 1.3464E-04
 6.1143E+01 1.3087E-04
 6.1429E+01 1.2718E-04
 6.1714E+01 1.2358E-04
 6.2000E+01 1.2006E-04
 6.2286E+01 1.1663E-04
 6.2571E+01 1.1328E-04
 6.2857E+01 1.1002E-04
 6.3143E+01 1.0683E-04
 6.3429E+01 1.0372E-04
 6.3714E+01 1.0069E-04
 6.4000E+01 9.7733E-05
 6.4286E+01 9.4852E-05
 6.4571E+01 9.2043E-05
 6.4857E+01 8.9306E-05
 6.5143E+01 8.6638E-05
 6.5429E+01 8.4039E-05
 6.5714E+01 8.1507E-05
 6.6000E+01 7.9040E-05
 6.6286E+01 7.6638E-05
 6.6571E+01 7.4299E-05
 6.6857E+01 7.2022E-05
 6.7143E+01 6.9806E-05
 6.7429E+01 6.7647E-05
 6.7714E+01 6.5547E-05
 6.8000E+01 6.3504E-05
 6.8286E+01 6.1517E-05
 6.8571E+01 5.9582E-05
 6.8857E+01 5.7703E-05
 6.9143E+01 5.5874E-05
 6.9429E+01 5.4096E-05
 6.9714E+01 5.2368E-05
 7.0000E+01 5.0688E-05
 7.0286E+01 4.9056E-05
 7.0571E+01 4.7469E-05
 7.0857E+01 4.5929E-05
 7.1143E+01 4.4432E-05
 7.1429E+01 4.2980E-05
 7.1714E+01 4.1568E-05
 7.2000E+01 4.0198E-05
 7.2286E+01 3.8867E-05
 7.2571E+01 3.7575E-05
 7.2857E+01 3.6322E-05
 7.3143E+01 3.5105E-05
 7.3429E+01 3.3926E-05
 7.3714E+01 3.2780E-05
 7.4000E+01 3.1671E-05
 7.4286E+01 3.0594E-05
 7.4571E+01 2.9550E-05
 7.4857E+01 2.8537E-05
 7.5143E+01 2.7556E-05
 7.5429E+01 2.6605E-05
 7.5714E+01 2.5683E-05
 7.6000E+01 2.4791E-05
 7.6286E+01 2.3925E-05
 7.6571E+01 2.3087E-05
 7.6857E+01 2.2275E-05
 7.7143E+01 2.1489E-05
 7.7429E+01 2.0728E-05
 7.7714E+01 1.9992E-05
 7.8000E+01 1.9278E-05
 7.8286E+01 1.8588E-05
 7.8571E+01 1.7920E-05
 7.8857E+01 1.7274E-05
 7.9143E+01 1.6649E-05
 7.9429E+01 1.6043E-05
 7.9714E+01 1.5459E-05
 8.0000E+01 1.4893E-05
 8.0286E+01 1.4347E-05
 8.0571E+01 1.3819E-05
 8.0857E+01 1.3307E-05
 8.1143E+01 1.2814E-05
 8.1429E+01 1.2337E-05
 8.1714E+01 1.1876E-05
 8.2000E+01 1.1431E-05
 8.2286E+01 1.1001E-05
 8.2571E+01 1.0586E-05
 8.2857E+01 1.0185E-05
 8.3143E+01 9.7982E-06
 8.3429E+01 9.4244E-06
 8.3714E+01 9.0640E-06
 8.4000E+01 8.7163E-06
 8.4286E+01 8.3807E-06
 8.4571E+01 8.0575E-06
 8.4857E+01 7.7449E-06
 8.5143E+01 7.4442E-06
 8.5429E+01 7.1540E-06
 8.5714E+01 6.8741E-06
 8.6000E+01 6.6044E-06
 8.6286E+01 6.3443E-06
 8.6571E+01 6.0935E-06
 8.6857E+01 5.8519E-06
 8.7143E+01 5.6192E-06
 8.7429E+01 5.3947E-06
 8.7714E+01 5.1787E-06
 8.8000E+01 4.9706E-06
 8.8286E+01 4.7704E-06
 8.8571E+01 4.5776E-06
 8.8857E+01 4.3919E-06
 8.9143E+01 4.2131E-06
 8.9429E+01 4.0415E-06
 8.9714E+01 3.8759E-06
 9.0000E+01 3.7168E-06
 9.0286E+01 3.5637E-06
 9.0571E+01 3.4162E-06
 9.0857E+01 3.2746E-06
 9.1143E+01 3.1383E-06
 9.1429E+01 3.0076E-06
 9.1714E+01 2.8816E-06
 9.2000E+01 2.7609E-06
 9.2286E+01 2.6444E-06
 9.2571E+01 2.5329E-06
 9.2857E+01 2.4255E-06
 9.3143E+01 2.3226E-06
 9.3429E+01 2.2237E-06
 9.3714E+01 2.1286E-06
 9.4000E+01 2.0374E-06
 9.4286E+01 1.9498E-06
 9.4571E+01 1.8659E-06
 9.4857E+01 1.7852E-06
 9.5143E+01 1.7079E-06
 9.5429E+01 1.6336E-06
 9.5714E+01 1.5626E-06
 9.6000E+01 1.4942E-06
 9.6286E+01 1.4287E-06
 9.6571E+01 1.3659E-06
 9.6857E+01 1.3057E-06
 9.7143E+01 1.2480E-06
 9.7429E+01 1.1926E-06
 9.7714E+01 1.1395E-06
 9.8000E+01 1.0886E-06
 9.8286E+01 1.0398E-06
 9.8571E+01 9.9318E-07
 9.8857E+01 9.4846E-07
 9.9143E+01 9.0564E-07
 9.9429E+01 8.6460E-07
 9.9714E+01 8.2547E-07
 1.0000E+02 7.8786E-07
 1.0029E+02 7.5182E-07
 1.0057E+02 7.1733E-07
 1.0086E+02 6.8430E-07
 1.0114E+02 6.5284E-07
 1.0143E+02 6.2271E-07
 1.0171E+02 5.9385E-07
 1.0200E+02 5.6622E-07
 1.0229E+02 5.3990E-07
 1.0257E+02 5.1471E-07
 1.0286E+02 4.9061E-07
 1.0314E+02 4.6760E-07
 1.0343E+02 4.4558E-07
 1.0371E+02 4.2459E-07
 1.0400E+02 4.0455E-07
 1.0429E+02 3.8535E-07
 1.0457E+02 3.6702E-07
 1.0486E+02 3.4953E-07
 1.0514E+02 3.3280E-07
 1.0543E+02 3.1691E-07
 1.0571E+02 3.0167E-07
 1.0600E+02 2.8716E-07
 1.0629E+02 2.7328E-07
 1.0657E+02 2.6002E-07
 1.0686E+02 2.4748E-07
 1.0714E+02 2.3535E-07
 1.0743E+02 2.2384E-07
 1.0771E+02 2.1286E-07
 1.0800E+02 2.0241E-07
 1.0829E+02 1.9247E-07
 1.0857E+02 1.8297E-07
 1.0886E+02 1.7399E-07
 1.0914E+02 1.6536E-07
 1.0943E+02 1.5716E-07
 1.0971E+02 1.4933E-07
 1.1000E+02 1.4187E-07
 1.1029E+02 1.3473E-07
 1.1057E+02 1.2798E-07
 1.1086E+02 1.2151E-07
 1.1114E+02 1.1536E-07
 1.1143E+02 1.0953E-07
 1.1171E+02 1.0397E-07
 1.1200E+02 9.8654E-08
 1.1229E+02 9.3608E-08
 1.1257E+02 8.8851E-08
 1.1286E+02 8.4259E-08
 1.1314E+02 7.9956E-08
 1.1343E+02 7.5819E-08
 1.1371E+02 7.1918E-08
 1.1400E+02 6.8197E-08
 1.1429E+02 6.4651E-08
 1.1457E+02 6.1305E-08
 1.1486E+02 5.8104E-08
 1.1514E+02 5.5092E-08
 1.1543E+02 5.2197E-08
 1.1571E+02 4.9467E-08
 1.1600E+02 4.6851E-08
 1.1629E+02 4.4390E-08
 1.1657E+02 4.2053E-08
 1.1686E+02 3.9823E-08
 1.1714E+02 3.7713E-08
 1.1743E+02 3.5698E-08
 1.1771E+02 3.3803E-08
 1.1800E+02 3.1990E-08
 1.1829E+02 3.0281E-08
 1.1857E+02 2.8654E-08
 1.1886E+02 2.7104E-08
 1.1914E+02 2.5638E-08
 1.1943E+02 2.4252E-08
 1.1971E+02 2.2942E-08
 1.2000E+02 2.1684E-08
 1.2029E+02 2.0502E-08
 1.2057E+02 1.9381E-08
 1.2086E+02 1.8320E-08
 1.2114E+02 1.7308E-08
 1.2143E+02 1.6351E-08
 1.2171E+02 1.5449E-08
 1.2200E+02 1.4586E-08
 1.2229E+02 1.3782E-08
 1.2257E+02 1.3019E-08
 1.2286E+02 1.2292E-08
 1.2314E+02 1.1608E-08
 1.2343E+02 1.0964E-08
 1.2371E+02 1.0352E-08
 1.2400E+02 9.7724E-09
 1.2429E+02 9.2264E-09
 1.2457E+02 8.6982E-09
 1.2486E+02 8.2064E-09
 1.2514E+02 7.7461E-09
 1.2543E+02 7.3081E-09
 1.2571E+02 6.8891E-09
 1.2600E+02 6.4950E-09
 1.2629E+02 6.1222E-09
 1.2657E+02 5.7713E-09
 1.2686E+02 5.4448E-09
 1.2714E+02 5.1286E-09
 1.2743E+02 4.8369E-09
 1.2771E+02 4.5553E-09
 1.2800E+02 4.2894E-09
 1.2829E+02 4.0438E-09
 1.2857E+02 3.8116E-09
 1.2886E+02 3.5911E-09
 1.2914E+02 3.3787E-09
 1.2943E+02 3.1814E-09
 1.2971E+02 2.9969E-09
 1.3000E+02 2.8172E-09
 1.3029E+02 2.6483E-09
 1.3057E+02 2.4914E-09
 1.3086E+02 2.3419E-09
 1.3114E+02 2.2033E-09
 1.3143E+02 2.0714E-09
 1.3171E+02 1.9490E-09
 1.3200E+02 1.8300E-09
 1.3229E+02 1.7228E-09
 1.3257E+02 1.6197E-09
 1.3286E+02 1.5207E-09
 1.3314E+02 1.4318E-09
 1.3343E+02 1.3466E-09
 1.3371E+02 1.2679E-09
 1.3400E+02 1.1885E-09
 1.3429E+02 1.1177E-09
 1.3457E+02 1.0506E-09
 1.3486E+02 9.8614E-10
 1.3514E+02 9.2720E-10
 1.3543E+02 8.6941E-10
 1.3571E+02 8.1660E-10
 1.3600E+02 7.6570E-10
 1.3629E+02 7.1776E-10
 1.3657E+02 6.7422E-10
 1.3686E+02 6.3274E-10
 1.3714E+02 5.9188E-10
 1.3743E+02 5.5493E-10
 1.3771E+02 5.2133E-10
 1.3800E+02 4.8899E-10
 1.3829E+02 4.5853E-10
 1.3857E+02 4.2981E-10
 1.3886E+02 4.0173E-10
 1.3914E+02 3.7575E-10
 1.3943E+02 3.5279E-10
 1.3971E+02 3.3071E-10
 1.4000E+02 3.0967E-10
 1.4029E+02 2.9073E-10
 1.4057E+02 2.7311E-10
 1.4086E+02 2.5553E-10
 1.4114E+02 2.3940E-10
 1.4143E+02 2.2413E-10
 1.4171E+02 2.0957E-10
 1.4200E+02 1.9574E-10
 1.4229E+02 1.8359E-10
 1.4257E+02 1.7128E-10
 1.4286E+02 1.6034E-10
 1.4314E+02 1.5042E-10
 1.4343E+02 1.3940E-10
 1.4371E+02 1.3145E-10
 1.4400E+02 1.2287E-10
 1.4429E+02 1.1495E-10
 1.4457E+02 1.0778E-10
 1.4486E+02 1.0017E-10
 1.4514E+02 9.3916E-11
 1.4543E+02 8.7576E-11
 1.4571E+02 8.2117E-11
 1.4600E+02 7.6754E-11
 1.4629E+02 7.1748E-11
 1.4657E+02 6.6736E-11
 1.4686E+02 6.2376E-11
 1.4714E+02 5.8077E-11
 1.4743E+02 5.3856E-11
 1.4771E+02 5.0897E-11
 1.4800E+02 4.7318E-11
 1.4829E+02 4.4395E-11
 1.4857E+02 4.1536E-11
 1.4886E+02 3.8218E-11
 1.4914E+02 3.6091E-11
 1.4943E+02 3.3175E-11
 1.4971E+02 3.0441E-11
 1.5000E+02 2.8549E-11
 1.5029E+02 2.6513E-11
 1.5057E+02 2.5203E-11
 1.5086E+02 2.3635E-11
 1.5114E+02 2.2250E-11
 1.5143E+02 2.0741E-11
 1.5171E+02 1.9317E-11
 1.5200E+02 1.8159E-11
 1.5229E+02 1.6650E-11
 1.5257E+02 1.5727E-11
 1.5286E+02 1.4567E-11
 1.5314E+02 1.3365E-11
 1.5343E+02 1.2345E-11
 1.5371E+02 1.1390E-11
 1.5400E+02 1.0682E-11
 1.5429E+02 9.9421E-12
 1.5457E+02 9.3443E-12
 1.5486E+02 8.5369E-12
 1.5514E+02 7.9051E-12
 1.5543E+02 7.4247E-12
 1.5571E+02 6.7385E-12
 1.5600E+02 6.4265E-12
 1.5629E+02 6.1393E-12
 1.5657E+02 5.7058E-12
 1.5686E+02 5.3213E-12
 1.5714E+02 4.9413E-12
 1.5743E+02 4.6546E-12
 1.5771E+02 4.3593E-12
 1.5800E+02 4.0124E-12
 1.5829E+02 3.6590E-12
 1.5857E+02 3.3786E-12
 1.5886E+02 3.0171E-12
 1.5914E+02 2.8384E-12
 1.5943E+02 2.6458E-12
 1.5971E+02 2.3591E-12
 1.6000E+02 2.2845E-12
 1.6029E+02 2.0650E-12
 1.6057E+02 1.9259E-12
 1.6086E+02 1.8171E-12
 1.6114E+02 1.7470E-12
 1.6143E+02 1.6481E-12
 1.6171E+02 1.4400E-12
 1.6200E+02 1.3987E-12
 1.6229E+02 1.2837E-12
 1.6257E+02 1.1876E-12
 1.6286E+02 1.1527E-12
 1.6314E+02 1.0533E-12
 1.6343E+02 9.1765E-13
 1.6371E+02 8.9083E-13
 1.6400E+02 8.3853E-13
 1.6429E+02 7.4538E-13
 1.6457E+02 7.4472E-13
 1.6486E+02 6.3101E-13
 1.6514E+02 5.8827E-13
 1.6543E+02 5.3338E-13
 1.6571E+02 4.4896E-13
 1.6600E+02 4.3722E-13
 1.6629E+02 3.4982E-13
 1.6657E+02 3.5596E-13
 1.6686E+02 3.6961E-13
 1.6714E+02 3.4045E-13
 1.6743E+02 3.4858E-13
 1.6771E+02 3.1072E-13
 1.6800E+02 3.1332E-13
 1.6829E+02 3.0695E-13
 1.6857E+02 2.5265E-13
 1.6886E+02 2.4753E-13
 1.6914E+02 2.0664E-13
 1.6943E+02 1.9360E-13
 1.6971E+02 1.8510E-13
 1.7000E+02 1.2237E-13
 1.7029E+02 1.4641E-13
 1.7057E+02 1.3019E-13
 1.7086E+02 9.5482E-14
 1.7114E+02 1.0632E-13
 1.7143E+02 7.9646E-14
 1.7171E+02 8.3162E-14
 1.7200E+02 8.0522E-14
 1.7229E+02 7.8537E-14
 1.7257E+02 7.2984E-14
 1.7286E+02 6.0639E-14
 1.7314E+02 8.2126E-14
 1.7343E+02 8.4743E-14
 1.7371E+02 8.2552E-14
 1.7400E+02 7.6571E-14
 1.7429E+02 6.7456E-14
 1.7457E+02 6.1008E-14
 1.7486E+02 3.7089E-14
 1.7514E+02 2.4287E-14
 1.7543E+02 2.3213E-14
 1.7571E+02 2.1968E-14
 1.7600E+02 2.2614E-14
 1.7629E+02 2.3357E-14
 1.7657E+02 2.4575E-14
 1.7686E+02 1.9672E-14
 1.7714E+02 1.6558E-14
 1.7743E+02 1.9349E-14
 1.7771E+02 1.6947E-14
 1.7800E+02 1.5134E-14
 1.7829E+02 1.3412E-14
 1.7857E+02 1.5042E-14
 1.7886E+02 1.7446E-14
 1.7914E+02 1.1650E-14
 1.7943E+02 1.4801E-14
 1.7971E+02 1.6380E-14
 1.8000E+02 1.3414E-14
 1.8029E+02 1.3949E-14
 1.8057E+02 8.3456E-15
 1.8086E+02 4.6970E-15
 1.8114E+02 3.8185E-15
 1.8143E+02 5.8164E-15
 1.8171E+02 6.0969E-15
 1.8200E+02 1.3912E-15
 1.8229E+02 3.1004E-15
 1.8257E+02 2.6361E-15
 1.8286E+02 2.6381E-15
 1.8314E+02 5.7561E-15
 1.8343E+02 2.3398E-15
 1.8371E+02 2.5933E-15
 1.8400E+02 3.7968E-15
 1.8429E+02 6.0159E-15
 1.8457E+02 5.1727E-15
 1.8486E+02 2.6539E-15
 1.8514E+02 9.0171E-15
 1.8543E+02 7.2232E-15
 1.8571E+02 1.2916E-15
 1.8600E+02 3.2092E-15
 1.8629E+02 1.8455E-15
 1.8657E+02 2.0124E-16
 1.8686E+02 1.5568E-17
 1.8714E+02 7.7296E-16
 1.8743E+02 2.0095E-15
 1.8771E+02 3.5999E-15
 1.8800E+02 4.2402E-15
 1.8829E+02 3.3019E-15
 1.8857E+02 2.7340E-15
 1.8886E+02 1.2998E-15
 1.8914E+02 1.0893E-15
 1.8943E+02 5.2496E-16
 1.8971E+02 9.1267E-17
 1.9000E+02 5.6421E-16
 1.9029E+02 3.9774E-17
 1.9057E+02 4.9525E-16
 1.9086E+02 2.9337E-16
 1.9114E+02 2.4886E-16
 1.9143E+02 6.7241E-16
 1.9171E+02 7.4755E-16
 1.9200E+02 8.4215E-16
 1.9229E+02 2.9519E-17
 1.9257E+02 1.0178E-15
 1.9286E+02 3.7480E-16
 1.9314E+02 4.6959E-16
 1.9343E+02 7.8883E-16
 1.9371E+02 2.2622E-16
 1.9400E+02 2.7910E-17
 1.9429E+02 1.7099E-16
 1.9457E+02 5.9051E-16
 1.9486E+02 1.0690E-15
 1.9514E+02 1.5255E-15
 1.9543E+02 2.0586E-15
 1.9571E+02 1.6827E-15
 1.9600E+02 1.2308E-15
 1.9629E+02 7.9536E-16
 1.9657E+02 3.3294E-16
 1.9686E+02 3.4369E-16
 1.9714E+02 2.2912E-16
 1.9743E+02 9.6406E-17
 1.9771E+02 3.7287E-17
 1.9800E+02 1.2153E-17
 1.9829E+02 3.3399E-18
 1.9857E+02 8.2184E-19
 1.9886E+02 2.7174E-19
 1.9914E+02 1.4511E-19
 1.9943E+02 1.0161E-19
 1.9971E+02 3.7787E-20
 2.0000E+02 2.9038E-20
