 0.0000E+00 2.7952E-03
 2.8571E-01 2.7947E-03
 5.7143E-01 2.7941E-03
 8.5714E-01 2.7931E-03
 1.1429E+00 2.7918E-03
 1.4286E+00 2.7900E-03
 1.7143E+00 2.7880E-03
 2.0000E+00 2.7854E-03
 2.2857E+00 2.7827E-03
 2.5714E+00 2.7794E-03
 2.8571E+00 2.7759E-03
 3.1429E+00 2.7719E-03
 3.4286E+00 2.7676E-03
 3.7143E+00 2.7630E-03
 4.0000E+00 2.7580E-03
 4.2857E+00 2.7526E-03
 4.5714E+00 2.7468E-03
 4.8571E+00 2.7407E-03
 5.1429E+00 2.7342E-03
 5.4286E+00 2.7274E-03
 5.7143E+00 2.7203E-03
 6.0000E+00 2.7127E-03
 6.2857E+00 2.7049E-03
 6.5714E+00 2.6967E-03
 6.8571E+00 2.6881E-03
 7.1429E+00 2.6792E-03
 7.4286E+00 2.6700E-03
 7.7143E+00 2.6605E-03
 8.0000E+00 2.6506E-03
 8.2857E+00 2.6404E-03
 8.5714E+00 2.6299E-03
 8.8571E+00 2.6191E-03
 9.1429E+00 2.6079E-03
 9.4286E+00 2.5965E-03
 9.7143E+00 2.5848E-03
 1.0000E+01 2.5728E-03
 1.0286E+01 2.5605E-03
 1.0571E+01 2.5479E-03
 1.0857E+01 2.5350E-03
 1.1143E+01 2.5219E-03
 1.1429E+01 2.5085E-03
 1.1714E+01 2.4948E-03
 1.2000E+01 2.4809E-03
 1.2286E+01 2.4667E-03
 1.2571E+01 2.4523E-03
 1.2857E+01 2.4377E-03
 1.3143E+01 2.4228E-03
 1.3429E+01 2.4076E-03
 1.3714E+01 2.3923E-03
 1.4000E+01 2.3767E-03
 1.4286E+01 2.3609E-03
 1.4571E+01 2.3449E-03
 1.4857E+01 2.3287E-03
 1.5143E+01 2.3123E-03
 1.5429E+01 2.2958E-03
 1.5714E+01 2.2790E-03
 1.6000E+01 2.2620E-03
 1.6286E+01 2.2449E-03
 1.6571E+01 2.2276E-03
 1.6857E+01 2.2102E-03
 1.7143E+01 2.1926E-03
 1.7429E+01 2.1748E-03
 1.7714E+01 2.1569E-03
 1.8000E+01 2.1389E-03
 1.8286E+01 2.1207E-03
 1.8571E+01 2.1024E-03
 1.8857E+01 2.0840E-03
 1.9143E+01 2.0654E-03
 1.9429E+01 2.0468E-03
 1.9714E+01 2.0280E-03
 2.0000E+01 2.0092E-03
 2.0286E+01 1.9902E-03
 2.0571E+01 1.9712E-03
 2.0857E+01 1.9521E-03
 2.1143E+01 1.9329E-03
 2.1429E+01 1.9136E-03
 2.1714E+01 1.8943E-03
 2.2000E+01 1.8750E-03
 2.2286E+01 1.8555E-03
 2.2571E+01 1.8361E-03
 2.2857E+01 1.8166E-03
 2.3143E+01 1.7970E-03
 2.3429E+01 1.7774E-03
 2.3714E+01 1.7579E-03
 2.4000E+01 1.7382E-03
 2.4286E+01 1.7186E-03
 2.4571E+01 1.6990E-03
 2.4857E+01 1.6793E-03
 2.5143E+01 1.6597E-03
 2.5429E+01 1.6401E-03
 2.5714E+01 1.6205E-03
 2.6000E+01 1.6009E-03
 2.6286E+01 1.5813E-03
 2.6571E+01 1.5618E-03
 2.6857E+01 1.5423E-03
 2.7143E+01 1.5228E-03
 2.7429E+01 1.5034E-03
 2.7714E+01 1.4840E-03
 2.8000E+01 1.4647E-03
 2.8286E+01 1.4455E-03
 2.8571E+01 1.4263E-03
 2.8857E+01 1.4072E-03
 2.9143E+01 1.3881E-03
 2.9429E+01 1.3691E-03
 2.9714E+01 1.3502E-03
 3.0000E+01 1.3314E-03
 3.0286E+01 1.3126E-03
 3.0571E+01 1.2940E-03
 3.0857E+01 1.2754E-03
 3.1143E+01 1.2569E-03
 3.1429E+01 1.2386E-03
 3.1714E+01 1.2203E-03
 3.2000E+01 1.2022E-03
 3.2286E+01 1.1841E-03
 3.2571E+01 1.1662E-03
 3.2857E+01 1.1484E-03
 3.3143E+01 1.1307E-03
 3.3429E+01 1.1132E-03
 3.3714E+01 1.0957E-03
 3.4000E+01 1.0784E-03
 3.4286E+01 1.0612E-03
 3.4571E+01 1.0442E-03
 3.4857E+01 1.0272E-03
 3.5143E+01 1.0105E-03
 3.5429E+01 9.9384E-04
 3.5714E+01 9.7734E-04
 3.6000E+01 9.6099E-04
 3.6286E+01 9.4479E-04
 3.6571E+01 9.2873E-04
 3.6857E+01 9.1282E-04
 3.7143E+01 8.9707E-04
 3.7429E+01 8.8147E-04
 3.7714E+01 8.6602E-04
 3.8000E+01 8.5073E-04
 3.8286E+01 8.3560E-04
 3.8571E+01 8.2063E-04
 3.8857E+01 8.0582E-04
 3.9143E+01 7.9117E-04
 3.9429E+01 7.7668E-04
 3.9714E+01 7.6235E-04
 4.0000E+01 7.4819E-04
 4.0286E+01 7.3418E-04
 4.0571E+01 7.2035E-04
 4.0857E+01 7.0668E-04
 4.1143E+01 6.9317E-04
 4.1429E+01 6.7983E-04
 4.1714E+01 6.6667E-04
 4.2000E+01 6.5367E-04
 4.2286E+01 6.4083E-04
 4.2571E+01 6.2817E-04
 4.2857E+01 6.1566E-04
 4.3143E+01 6.0333E-04
 4.3429E+01 5.9117E-04
 4.3714E+01 5.7917E-04
 4.4000E+01 5.6734E-04
 4.4286E+01 5.5567E-04
 4.4571E+01 5.4418E-04
 4.4857E+01 5.3284E-04
 4.5143E+01 5.2168E-04
 4.5429E+01 5.1068E-04
 4.5714E+01 4.9984E-04
 4.6000E+01 4.8917E-04
 4.6286E+01 4.7866E-04
 4.6571E+01 4.6832E-04
 4.6857E+01 4.5814E-04
 4.7143E+01 4.4812E-04
 4.7429E+01 4.3826E-04
 4.7714E+01 4.2856E-04
 4.8000E+01 4.1902E-04
 4.8286E+01 4.0963E-04
 4.8571E+01 4.0041E-04
 4.8857E+01 3.9133E-04
 4.9143E+01 3.8241E-04
 4.9429E+01 3.7365E-04
 4.9714E+01 3.6503E-04
 5.0000E+01 3.5656E-04
 5.0286E+01 3.4825E-04
 5.0571E+01 3.4009E-04
 5.0857E+01 3.3207E-04
 5.1143E+01 3.2419E-04
 5.1429E+01 3.1646E-04
 5.1714E+01 3.0888E-04
 5.2000E+01 3.0143E-04
 5.2286E+01 2.9412E-04
 5.2571E+01 2.8696E-04
 5.2857E+01 2.7992E-04
 5.3143E+01 2.7303E-04
 5.3429E+01 2.6627E-04
 5.3714E+01 2.5964E-04
 5.4000E+01 2.5314E-04
 5.4286E+01 2.4678E-04
 5.4571E+01 2.4054E-04
 5.4857E+01 2.3442E-04
 5.5143E+01 2.2844E-04
 5.5429E+01 2.2257E-04
 5.5714E+01 2.1683E-04
 5.6000E+01 2.1120E-04
 5.6286E+01 2.0570E-04
 5.6571E+01 2.0030E-04
 5.6857E+01 1.9503E-04
 5.7143E+01 1.8987E-04
 5.7429E+01 1.8482E-04
 5.7714E+01 1.7989E-04
 5.8000E+01 1.7506E-04
 5.8286E+01 1.7033E-04
 5.8571E+01 1.6571E-04
 5.8857E+01 1.6120E-04
 5.9143E+01 1.5678E-04
 5.9429E+01 1.5247E-04
 5.9714E+01 1.4826E-04
 6.0000E+01 1.4414E-04
 6.0286E+01 1.4012E-04
 6.0571E+01 1.3619E-04
 6.0857E+01 1.3236E-04
 6.1143E+01 1.2861E-04
 6.1429E+01 1.2496E-04
 6.1714E+01 1.2139E-04
 6.2000E+01 1.1791E-04
 6.2286E+01 1.1451E-04
 6.2571E+01 1.1119E-04
 6.2857E+01 1.0796E-04
 6.3143E+01 1.0481E-04
 6.3429E+01 1.0173E-04
 6.3714E+01 9.8737E-05
 6.4000E+01 9.5814E-05
 6.4286E+01 9.2966E-05
 6.4571E+01 9.0189E-05
 6.4857E+01 8.7484E-05
 6.5143E+01 8.4848E-05
 6.5429E+01 8.2280E-05
 6.5714E+01 7.9780E-05
 6.6000E+01 7.7346E-05
 6.6286E+01 7.4975E-05
 6.6571E+01 7.2667E-05
 6.6857E+01 7.0423E-05
 6.7143E+01 6.8236E-05
 6.7429E+01 6.6109E-05
 6.7714E+01 6.4040E-05
 6.8000E+01 6.2027E-05
 6.8286E+01 6.0070E-05
 6.8571E+01 5.8166E-05
 6.8857E+01 5.6316E-05
 6.9143E+01 5.4517E-05
 6.9429E+01 5.2768E-05
 6.9714E+01 5.1068E-05
 7.0000E+01 4.9417E-05
 7.0286E+01 4.7812E-05
 7.0571E+01 4.6254E-05
 7.0857E+01 4.4740E-05
 7.1143E+01 4.3271E-05
 7.1429E+01 4.1843E-05
 7.1714E+01 4.0458E-05
 7.2000E+01 3.9113E-05
 7.2286E+01 3.7808E-05
 7.2571E+01 3.6541E-05
 7.2857E+01 3.5312E-05
 7.3143E+01 3.4120E-05
 7.3429E+01 3.2963E-05
 7.3714E+01 3.1842E-05
 7.4000E+01 3.0754E-05
 7.4286E+01 2.9700E-05
 7.4571E+01 2.8678E-05
 7.4857E+01 2.7687E-05
 7.5143E+01 2.6727E-05
 7.5429E+01 2.5797E-05
 7.5714E+01 2.4896E-05
 7.6000E+01 2.4023E-05
 7.6286E+01 2.3178E-05
 7.6571E+01 2.2359E-05
 7.6857E+01 2.1566E-05
 7.7143E+01 2.0799E-05
 7.7429E+01 2.0056E-05
 7.7714E+01 1.9337E-05
 7.8000E+01 1.8642E-05
 7.8286E+01 1.7968E-05
 7.8571E+01 1.7317E-05
 7.8857E+01 1.6687E-05
 7.9143E+01 1.6078E-05
 7.9429E+01 1.5489E-05
 7.9714E+01 1.4919E-05
 8.0000E+01 1.4369E-05
 8.0286E+01 1.3837E-05
 8.0571E+01 1.3324E-05
 8.0857E+01 1.2827E-05
 8.1143E+01 1.2348E-05
 8.1429E+01 1.1885E-05
 8.1714E+01 1.1437E-05
 8.2000E+01 1.1005E-05
 8.2286E+01 1.0588E-05
 8.2571E+01 1.0185E-05
 8.2857E+01 9.7965E-06
 8.3143E+01 9.4210E-06
 8.3429E+01 9.0591E-06
 8.3714E+01 8.7099E-06
 8.4000E+01 8.3732E-06
 8.4286E+01 8.0482E-06
 8.4571E+01 7.7344E-06
 8.4857E+01 7.4325E-06
 8.5143E+01 7.1412E-06
 8.5429E+01 6.8605E-06
 8.5714E+01 6.5895E-06
 8.6000E+01 6.3288E-06
 8.6286E+01 6.0770E-06
 8.6571E+01 5.8350E-06
 8.6857E+01 5.6017E-06
 8.7143E+01 5.3769E-06
 8.7429E+01 5.1607E-06
 8.7714E+01 4.9524E-06
 8.8000E+01 4.7520E-06
 8.8286E+01 4.5587E-06
 8.8571E+01 4.3730E-06
 8.8857E+01 4.1936E-06
 8.9143E+01 4.0218E-06
 8.9429E+01 3.8561E-06
 8.9714E+01 3.6970E-06
 9.0000E+01 3.5437E-06
 9.0286E+01 3.3965E-06
 9.0571E+01 3.2551E-06
 9.0857E+01 3.1190E-06
 9.1143E+01 2.9884E-06
 9.1429E+01 2.8627E-06
 9.1714E+01 2.7421E-06
 9.2000E+01 2.6259E-06
 9.2286E+01 2.5147E-06
 9.2571E+01 2.4077E-06
 9.2857E+01 2.3049E-06
 9.3143E+01 2.2064E-06
 9.3429E+01 2.1115E-06
 9.3714E+01 2.0206E-06
 9.4000E+01 1.9334E-06
 9.4286E+01 1.8497E-06
 9.4571E+01 1.7694E-06
 9.4857E+01 1.6923E-06
 9.5143E+01 1.6185E-06
 9.5429E+01 1.5475E-06
 9.5714E+01 1.4793E-06
 9.6000E+01 1.4141E-06
 9.6286E+01 1.3515E-06
 9.6571E+01 1.2915E-06
 9.6857E+01 1.2342E-06
 9.7143E+01 1.1791E-06
 9.7429E+01 1.1263E-06
 9.7714E+01 1.0758E-06
 9.8000E+01 1.0273E-06
 9.8286E+01 9.8090E-07
 9.8571E+01 9.3636E-07
 9.8857E+01 8.9388E-07
 9.9143E+01 8.5313E-07
 9.9429E+01 8.1421E-07
 9.9714E+01 7.7691E-07
 1.0000E+02 7.4124E-07
 1.0029E+02 7.0720E-07
 1.0057E+02 6.7453E-07
 1.0086E+02 6.4341E-07
 1.0114E+02 6.1353E-07
 1.0143E+02 5.8496E-07
 1.0171E+02 5.5765E-07
 1.0200E+02 5.3155E-07
 1.0229E+02 5.0662E-07
 1.0257E+02 4.8274E-07
 1.0286E+02 4.5995E-07
 1.0314E+02 4.3820E-07
 1.0343E+02 4.1742E-07
 1.0371E+02 3.9755E-07
 1.0400E+02 3.7862E-07
 1.0429E+02 3.6050E-07
 1.0457E+02 3.4324E-07
 1.0486E+02 3.2675E-07
 1.0514E+02 3.1104E-07
 1.0543E+02 2.9601E-07
 1.0571E+02 2.8166E-07
 1.0600E+02 2.6802E-07
 1.0629E+02 2.5494E-07
 1.0657E+02 2.4254E-07
 1.0686E+02 2.3063E-07
 1.0714E+02 2.1932E-07
 1.0743E+02 2.0847E-07
 1.0771E+02 1.9822E-07
 1.0800E+02 1.8842E-07
 1.0829E+02 1.7902E-07
 1.0857E+02 1.7013E-07
 1.0886E+02 1.6161E-07
 1.0914E+02 1.5355E-07
 1.0943E+02 1.4583E-07
 1.0971E+02 1.3852E-07
 1.1000E+02 1.3151E-07
 1.1029E+02 1.2486E-07
 1.1057E+02 1.1852E-07
 1.1086E+02 1.1251E-07
 1.1114E+02 1.0682E-07
 1.1143E+02 1.0135E-07
 1.1171E+02 9.6162E-08
 1.1200E+02 9.1227E-08
 1.1229E+02 8.6558E-08
 1.1257E+02 8.2083E-08
 1.1286E+02 7.7847E-08
 1.1314E+02 7.3820E-08
 1.1343E+02 6.9983E-08
 1.1371E+02 6.6355E-08
 1.1400E+02 6.2892E-08
 1.1429E+02 5.9614E-08
 1.1457E+02 5.6492E-08
 1.1486E+02 5.3539E-08
 1.1514E+02 5.0730E-08
 1.1543E+02 4.8040E-08
 1.1571E+02 4.5502E-08
 1.1600E+02 4.3096E-08
 1.1629E+02 4.0795E-08
 1.1657E+02 3.8607E-08
 1.1686E+02 3.6551E-08
 1.1714E+02 3.4590E-08
 1.1743E+02 3.2733E-08
 1.1771E+02 3.0967E-08
 1.1800E+02 2.9291E-08
 1.1829E+02 2.7704E-08
 1.1857E+02 2.6191E-08
 1.1886E+02 2.4776E-08
 1.1914E+02 2.3429E-08
 1.1943E+02 2.2155E-08
 1.1971E+02 2.0939E-08
 1.2000E+02 1.9788E-08
 1.2029E+02 1.8709E-08
 1.2057E+02 1.7676E-08
 1.2086E+02 1.6702E-08
 1.2114E+02 1.5774E-08
 1.2143E+02 1.4896E-08
 1.2171E+02 1.4064E-08
 1.2200E+02 1.3284E-08
 1.2229E+02 1.2543E-08
 1.2257E+02 1.1831E-08
 1.2286E+02 1.1172E-08
 1.2314E+02 1.0545E-08
 1.2343E+02 9.9488E-09
 1.2371E+02 9.3942E-09
 1.2400E+02 8.8647E-09
 1.2429E+02 8.3628E-09
 1.2457E+02 7.8895E-09
 1.2486E+02 7.4383E-09
 1.2514E+02 7.0178E-09
 1.2543E+02 6.6135E-09
 1.2571E+02 6.2383E-09
 1.2600E+02 5.8770E-09
 1.2629E+02 5.5382E-09
 1.2657E+02 5.2213E-09
 1.2686E+02 4.9124E-09
 1.2714E+02 4.6256E-09
 1.2743E+02 4.3527E-09
 1.2771E+02 4.0992E-09
 1.2800E+02 3.8584E-09
 1.2829E+02 3.6364E-09
 1.2857E+02 3.4219E-09
 1.2886E+02 3.2194E-09
 1.2914E+02 3.0322E-09
 1.2943E+02 2.8517E-09
 1.2971E+02 2.6836E-09
 1.3000E+02 2.5247E-09
 1.3029E+02 2.3749E-09
 1.3057E+02 2.2340E-09
 1.3086E+02 2.1007E-09
 1.3114E+02 1.9737E-09
 1.3143E+02 1.8590E-09
 1.3171E+02 1.7490E-09
 1.3200E+02 1.6440E-09
 1.3229E+02 1.5456E-09
 1.3257E+02 1.4501E-09
 1.3286E+02 1.3638E-09
 1.3314E+02 1.2804E-09
 1.3343E+02 1.2003E-09
 1.3371E+02 1.1285E-09
 1.3400E+02 1.0580E-09
 1.3429E+02 9.9364E-10
 1.3457E+02 9.3425E-10
 1.3486E+02 8.7449E-10
 1.3514E+02 8.2151E-10
 1.3543E+02 7.7048E-10
 1.3571E+02 7.2164E-10
 1.3600E+02 6.7777E-10
 1.3629E+02 6.3763E-10
 1.3657E+02 5.9840E-10
 1.3686E+02 5.6131E-10
 1.3714E+02 5.2594E-10
 1.3743E+02 4.9061E-10
 1.3771E+02 4.6082E-10
 1.3800E+02 4.3084E-10
 1.3829E+02 4.0421E-10
 1.3857E+02 3.7951E-10
 1.3886E+02 3.5595E-10
 1.3914E+02 3.3394E-10
 1.3943E+02 3.1110E-10
 1.3971E+02 2.9314E-10
 1.4000E+02 2.7406E-10
 1.4029E+02 2.5621E-10
 1.4057E+02 2.3994E-10
 1.4086E+02 2.2305E-10
 1.4114E+02 2.0888E-10
 1.4143E+02 1.9544E-10
 1.4171E+02 1.8353E-10
 1.4200E+02 1.7221E-10
 1.4229E+02 1.6125E-10
 1.4257E+02 1.5144E-10
 1.4286E+02 1.4132E-10
 1.4314E+02 1.3219E-10
 1.4343E+02 1.2357E-10
 1.4371E+02 1.1555E-10
 1.4400E+02 1.0763E-10
 1.4429E+02 9.9611E-11
 1.4457E+02 9.3768E-11
 1.4486E+02 8.7130E-11
 1.4514E+02 8.1354E-11
 1.4543E+02 7.6370E-11
 1.4571E+02 7.0544E-11
 1.4600E+02 6.5954E-11
 1.4629E+02 6.1685E-11
 1.4657E+02 5.7842E-11
 1.4686E+02 5.3934E-11
 1.4714E+02 5.0418E-11
 1.4743E+02 4.7211E-11
 1.4771E+02 4.3997E-11
 1.4800E+02 4.1377E-11
 1.4829E+02 3.8858E-11
 1.4857E+02 3.6081E-11
 1.4886E+02 3.3487E-11
 1.4914E+02 3.1435E-11
 1.4943E+02 2.9063E-11
 1.4971E+02 2.6924E-11
 1.5000E+02 2.4969E-11
 1.5029E+02 2.3008E-11
 1.5057E+02 2.1762E-11
 1.5086E+02 2.0085E-11
 1.5114E+02 1.8559E-11
 1.5143E+02 1.7449E-11
 1.5171E+02 1.6131E-11
 1.5200E+02 1.5294E-11
 1.5229E+02 1.4197E-11
 1.5257E+02 1.3265E-11
 1.5286E+02 1.2636E-11
 1.5314E+02 1.1677E-11
 1.5343E+02 1.0769E-11
 1.5371E+02 1.0012E-11
 1.5400E+02 9.2585E-12
 1.5429E+02 8.5449E-12
 1.5457E+02 8.0733E-12
 1.5486E+02 7.4398E-12
 1.5514E+02 6.8838E-12
 1.5543E+02 6.3765E-12
 1.5571E+02 6.0768E-12
 1.5600E+02 5.6296E-12
 1.5629E+02 4.9615E-12
 1.5657E+02 4.7666E-12
 1.5686E+02 4.2671E-12
 1.5714E+02 3.9786E-12
 1.5743E+02 3.7534E-12
 1.5771E+02 3.4006E-12
 1.5800E+02 3.3749E-12
 1.5829E+02 3.0380E-12
 1.5857E+02 2.8603E-12
 1.5886E+02 2.7774E-12
 1.5914E+02 2.5126E-12
 1.5943E+02 2.4103E-12
 1.5971E+02 2.2369E-12
 1.6000E+02 2.0476E-12
 1.6029E+02 1.8691E-12
 1.6057E+02 1.6042E-12
 1.6086E+02 1.5153E-12
 1.6114E+02 1.4166E-12
 1.6143E+02 1.2867E-12
 1.6171E+02 1.2386E-12
 1.6200E+02 1.1047E-12
 1.6229E+02 1.0480E-12
 1.6257E+02 9.3555E-13
 1.6286E+02 8.3353E-13
 1.6314E+02 7.9373E-13
 1.6343E+02 7.1877E-13
 1.6371E+02 7.6468E-13
 1.6400E+02 7.3721E-13
 1.6429E+02 6.8080E-13
 1.6457E+02 6.4179E-13
 1.6486E+02 6.0199E-13
 1.6514E+02 5.7741E-13
 1.6543E+02 4.9602E-13
 1.6571E+02 4.5054E-13
 1.6600E+02 3.6306E-13
 1.6629E+02 3.0609E-13
 1.6657E+02 3.1306E-13
 1.6686E+02 2.7091E-13
 1.6714E+02 2.4398E-13
 1.6743E+02 2.4365E-13
 1.6771E+02 2.4276E-13
 1.6800E+02 2.1084E-13
 1.6829E+02 1.9757E-13
 1.6857E+02 2.1338E-13
 1.6886E+02 1.8446E-13
 1.6914E+02 1.6314E-13
 1.6943E+02 1.6643E-13
 1.6971E+02 1.4826E-13
 1.7000E+02 1.4029E-13
 1.7029E+02 1.3713E-13
 1.7057E+02 1.2176E-13
 1.7086E+02 1.0879E-13
 1.7114E+02 9.7343E-14
 1.7143E+02 9.6404E-14
 1.7171E+02 7.6310E-14
 1.7200E+02 6.4134E-14
 1.7229E+02 6.3923E-14
 1.7257E+02 4.7981E-14
 1.7286E+02 5.4911E-14
 1.7314E+02 4.7877E-14
 1.7343E+02 4.3276E-14
 1.7371E+02 4.9791E-14
 1.7400E+02 3.5415E-14
 1.7429E+02 3.5840E-14
 1.7457E+02 2.7594E-14
 1.7486E+02 2.7165E-14
 1.7514E+02 4.1255E-14
 1.7543E+02 3.2808E-14
 1.7571E+02 3.9036E-14
 1.7600E+02 4.3306E-14
 1.7629E+02 3.1987E-14
 1.7657E+02 2.5918E-14
 1.7686E+02 1.7895E-14
 1.7714E+02 1.2166E-14
 1.7743E+02 7.4521E-15
 1.7771E+02 9.7956E-15
 1.7800E+02 7.9195E-15
 1.7829E+02 4.5260E-15
 1.7857E+02 1.1874E-14
 1.7886E+02 1.3889E-14
 1.7914E+02 1.4764E-14
 1.7943E+02 1.4190E-14
 1.7971E+02 1.1585E-14
 1.8000E+02 9.2247E-15
 1.8029E+02 7.1938E-15
 1.8057E+02 4.9074E-15
 1.8086E+02 3.5866E-15
 1.8114E+02 9.0280E-15
 1.8143E+02 5.5545E-15
 1.8171E+02 4.4339E-15
 1.8200E+02 5.8136E-15
 1.8229E+02 3.8708E-16
 1.8257E+02 2.0754E-15
 1.8286E+02 3.8809E-15
 1.8314E+02 7.6405E-15
 1.8343E+02 7.7044E-15
 1.8371E+02 3.1861E-15
 1.8400E+02 2.7841E-15
 1.8429E+02 6.1599E-16
 1.8457E+02 1.7325E-15
 1.8486E+02 1.6367E-15
 1.8514E+02 7.6202E-16
 1.8543E+02 1.1977E-15
 1.8571E+02 1.0535E-15
 1.8600E+02 1.4863E-15
 1.8629E+02 7.9891E-16
 1.8657E+02 2.9032E-15
 1.8686E+02 2.9318E-15
 1.8714E+02 8.3974E-16
 1.8743E+02 2.4525E-15
 1.8771E+02 3.3584E-15
 1.8800E+02 2.1990E-15
 1.8829E+02 5.5246E-16
 1.8857E+02 1.9180E-17
 1.8886E+02 2.0750E-16
 1.8914E+02 1.5563E-16
 1.8943E+02 4.3670E-16
 1.8971E+02 8.8114E-16
 1.9000E+02 1.6874E-15
 1.9029E+02 2.0097E-15
 1.9057E+02 2.6251E-15
 1.9086E+02 3.7930E-15
 1.9114E+02 2.5989E-15
 1.9143E+02 6.1923E-16
 1.9171E+02 9.4348E-16
 1.9200E+02 1.2439E-15
 1.9229E+02 4.0109E-16
 1.9257E+02 1.0451E-16
 1.9286E+02 5.5709E-16
 1.9314E+02 5.8153E-16
 1.9343E+02 1.1224E-16
 1.9371E+02 2.0605E-16
 1.9400E+02 4.1982E-16
 1.9429E+02 5.6175E-16
 1.9457E+02 1.3441E-15
 1.9486E+02 1.0963E-15
 1.9514E+02 3.4235E-16
 1.9543E+02 6.6837E-16
 1.9571E+02 1.5001E-16
 1.9600E+02 2.9112E-16
 1.9629E+02 1.8364E-16
 1.9657E+02 5.7189E-17
 1.9686E+02 3.2170E-16
 1.9714E+02 1.2348E-16
 1.9743E+02 4.5680E-18
 1.9771E+02 1.0271E-18
 1.9800E+02 4.9114E-19
 1.9829E+02 3.3994E-19
 1.9857E+02 5.3898E-19
 1.9886E+02 3.7833E-19
 1.9914E+02 1.4333E-19
 1.9943E+02 4.4404E-20
 1.9971E+02 5.0550E-21
 2.0000E+02 3.1280E-21
