 0.0000E+00 2.7483E-03
 2.8571E-01 2.7480E-03
 5.7143E-01 2.7473E-03
 8.5714E-01 2.7464E-03
 1.1429E+00 2.7450E-03
 1.4286E+00 2.7434E-03
 1.7143E+00 2.7414E-03
 2.0000E+00 2.7390E-03
 2.2857E+00 2.7363E-03
 2.5714E+00 2.7332E-03
 2.8571E+00 2.7298E-03
 3.1429E+00 2.7260E-03
 3.4286E+00 2.7218E-03
 3.7143E+00 2.7173E-03
 4.0000E+00 2.7125E-03
 4.2857E+00 2.7073E-03
 4.5714E+00 2.7017E-03
 4.8571E+00 2.6958E-03
 5.1429E+00 2.6895E-03
 5.4286E+00 2.6830E-03
 5.7143E+00 2.6760E-03
 6.0000E+00 2.6688E-03
 6.2857E+00 2.6612E-03
 6.5714E+00 2.6532E-03
 6.8571E+00 2.6450E-03
 7.1429E+00 2.6364E-03
 7.4286E+00 2.6274E-03
 7.7143E+00 2.6182E-03
 8.0000E+00 2.6087E-03
 8.2857E+00 2.5988E-03
 8.5714E+00 2.5886E-03
 8.8571E+00 2.5781E-03
 9.1429E+00 2.5674E-03
 9.4286E+00 2.5563E-03
 9.7143E+00 2.5450E-03
 1.0000E+01 2.5333E-03
 1.0286E+01 2.5214E-03
 1.0571E+01 2.5092E-03
 1.0857E+01 2.4968E-03
 1.1143E+01 2.4841E-03
 1.1429E+01 2.4711E-03
 1.1714E+01 2.4579E-03
 1.2000E+01 2.4444E-03
 1.2286E+01 2.4306E-03
 1.2571E+01 2.4167E-03
 1.2857E+01 2.4024E-03
 1.3143E+01 2.3880E-03
 1.3429E+01 2.3733E-03
 1.3714E+01 2.3585E-03
 1.4000E+01 2.3434E-03
 1.4286E+01 2.3281E-03
 1.4571E+01 2.3126E-03
 1.4857E+01 2.2969E-03
 1.5143E+01 2.2809E-03
 1.5429E+01 2.2649E-03
 1.5714E+01 2.2486E-03
 1.6000E+01 2.2322E-03
 1.6286E+01 2.2156E-03
 1.6571E+01 2.1988E-03
 1.6857E+01 2.1818E-03
 1.7143E+01 2.1647E-03
 1.7429E+01 2.1475E-03
 1.7714E+01 2.1301E-03
 1.8000E+01 2.1126E-03
 1.8286E+01 2.0949E-03
 1.8571E+01 2.0771E-03
 1.8857E+01 2.0592E-03
 1.9143E+01 2.0412E-03
 1.9429E+01 2.0231E-03
 1.9714E+01 2.0048E-03
 2.0000E+01 1.9865E-03
 2.0286E+01 1.9681E-03
 2.0571E+01 1.9496E-03
 2.0857E+01 1.9310E-03
 2.1143E+01 1.9123E-03
 2.1429E+01 1.8936E-03
 2.1714E+01 1.8748E-03
 2.2000E+01 1.8559E-03
 2.2286E+01 1.8370E-03
 2.2571E+01 1.8181E-03
 2.2857E+01 1.7991E-03
 2.3143E+01 1.7800E-03
 2.3429E+01 1.7610E-03
 2.3714E+01 1.7419E-03
 2.4000E+01 1.7228E-03
 2.4286E+01 1.7037E-03
 2.4571E+01 1.6845E-03
 2.4857E+01 1.6654E-03
 2.5143E+01 1.6462E-03
 2.5429E+01 1.6271E-03
 2.5714E+01 1.6080E-03
 2.6000E+01 1.5888E-03
 2.6286E+01 1.5697E-03
 2.6571E+01 1.5507E-03
 2.6857E+01 1.5316E-03
 2.7143E+01 1.5126E-03
 2.7429E+01 1.4936E-03
 2.7714E+01 1.4747E-03
 2.8000E+01 1.4558E-03
 2.8286E+01 1.4370E-03
 2.8571E+01 1.4183E-03
 2.8857E+01 1.3995E-03
 2.9143E+01 1.3809E-03
 2.9429E+01 1.3623E-03
 2.9714E+01 1.3438E-03
 3.0000E+01 1.3254E-03
 3.0286E+01 1.3070E-03
 3.0571E+01 1.2888E-03
 3.0857E+01 1.2706E-03
 3.1143E+01 1.2525E-03
 3.1429E+01 1.2345E-03
 3.1714E+01 1.2166E-03
 3.2000E+01 1.1988E-03
 3.2286E+01 1.1811E-03
 3.2571E+01 1.1635E-03
 3.2857E+01 1.1461E-03
 3.3143E+01 1.1287E-03
 3.3429E+01 1.1115E-03
 3.3714E+01 1.0944E-03
 3.4000E+01 1.0774E-03
 3.4286E+01 1.0605E-03
 3.4571E+01 1.0437E-03
 3.4857E+01 1.0271E-03
 3.5143E+01 1.0106E-03
 3.5429E+01 9.9425E-04
 3.5714E+01 9.7803E-04
 3.6000E+01 9.6193E-04
 3.6286E+01 9.4598E-04
 3.6571E+01 9.3017E-04
 3.6857E+01 9.1450E-04
 3.7143E+01 8.9898E-04
 3.7429E+01 8.8360E-04
 3.7714E+01 8.6837E-04
 3.8000E+01 8.5330E-04
 3.8286E+01 8.3837E-04
 3.8571E+01 8.2360E-04
 3.8857E+01 8.0898E-04
 3.9143E+01 7.9451E-04
 3.9429E+01 7.8020E-04
 3.9714E+01 7.6605E-04
 4.0000E+01 7.5205E-04
 4.0286E+01 7.3822E-04
 4.0571E+01 7.2454E-04
 4.0857E+01 7.1102E-04
 4.1143E+01 6.9765E-04
 4.1429E+01 6.8445E-04
 4.1714E+01 6.7141E-04
 4.2000E+01 6.5852E-04
 4.2286E+01 6.4581E-04
 4.2571E+01 6.3325E-04
 4.2857E+01 6.2086E-04
 4.3143E+01 6.0863E-04
 4.3429E+01 5.9656E-04
 4.3714E+01 5.8465E-04
 4.4000E+01 5.7291E-04
 4.4286E+01 5.6133E-04
 4.4571E+01 5.4991E-04
 4.4857E+01 5.3865E-04
 4.5143E+01 5.2755E-04
 4.5429E+01 5.1661E-04
 4.5714E+01 5.0583E-04
 4.6000E+01 4.9521E-04
 4.6286E+01 4.8475E-04
 4.6571E+01 4.7444E-04
 4.6857E+01 4.6430E-04
 4.7143E+01 4.5431E-04
 4.7429E+01 4.4448E-04
 4.7714E+01 4.3480E-04
 4.8000E+01 4.2528E-04
 4.8286E+01 4.1590E-04
 4.8571E+01 4.0669E-04
 4.8857E+01 3.9762E-04
 4.9143E+01 3.8871E-04
 4.9429E+01 3.7995E-04
 4.9714E+01 3.7133E-04
 5.0000E+01 3.6286E-04
 5.0286E+01 3.5454E-04
 5.0571E+01 3.4637E-04
 5.0857E+01 3.3833E-04
 5.1143E+01 3.3044E-04
 5.1429E+01 3.2270E-04
 5.1714E+01 3.1509E-04
 5.2000E+01 3.0762E-04
 5.2286E+01 3.0029E-04
 5.2571E+01 2.9309E-04
 5.2857E+01 2.8603E-04
 5.3143E+01 2.7910E-04
 5.3429E+01 2.7230E-04
 5.3714E+01 2.6564E-04
 5.4000E+01 2.5910E-04
 5.4286E+01 2.5269E-04
 5.4571E+01 2.4641E-04
 5.4857E+01 2.4025E-04
 5.5143E+01 2.3421E-04
 5.5429E+01 2.2830E-04
 5.5714E+01 2.2251E-04
 5.6000E+01 2.1683E-04
 5.6286E+01 2.1127E-04
 5.6571E+01 2.0582E-04
 5.6857E+01 2.0049E-04
 5.7143E+01 1.9527E-04
 5.7429E+01 1.9016E-04
 5.7714E+01 1.8516E-04
 5.8000E+01 1.8027E-04
 5.8286E+01 1.7549E-04
 5.8571E+01 1.7081E-04
 5.8857E+01 1.6623E-04
 5.9143E+01 1.6176E-04
 5.9429E+01 1.5738E-04
 5.9714E+01 1.5310E-04
 6.0000E+01 1.4892E-04
 6.0286E+01 1.4483E-04
 6.0571E+01 1.4084E-04
 6.0857E+01 1.3694E-04
 6.1143E+01 1.3313E-04
 6.1429E+01 1.2941E-04
 6.1714E+01 1.2578E-04
 6.2000E+01 1.2223E-04
 6.2286E+01 1.1876E-04
 6.2571E+01 1.1538E-04
 6.2857E+01 1.1208E-04
 6.3143E+01 1.0886E-04
 6.3429E+01 1.0572E-04
 6.3714E+01 1.0266E-04
 6.4000E+01 9.9669E-05
 6.4286E+01 9.6755E-05
 6.4571E+01 9.3914E-05
 6.4857E+01 9.1145E-05
 6.5143E+01 8.8445E-05
 6.5429E+01 8.5814E-05
 6.5714E+01 8.3249E-05
 6.6000E+01 8.0750E-05
 6.6286E+01 7.8316E-05
 6.6571E+01 7.5944E-05
 6.6857E+01 7.3637E-05
 6.7143E+01 7.1389E-05
 6.7429E+01 6.9201E-05
 6.7714E+01 6.7071E-05
 6.8000E+01 6.4998E-05
 6.8286E+01 6.2980E-05
 6.8571E+01 6.1017E-05
 6.8857E+01 5.9108E-05
 6.9143E+01 5.7250E-05
 6.9429E+01 5.5443E-05
 6.9714E+01 5.3687E-05
 7.0000E+01 5.1980E-05
 7.0286E+01 5.0319E-05
 7.0571E+01 4.8706E-05
 7.0857E+01 4.7138E-05
 7.1143E+01 4.5614E-05
 7.1429E+01 4.4134E-05
 7.1714E+01 4.2697E-05
 7.2000E+01 4.1300E-05
 7.2286E+01 3.9944E-05
 7.2571E+01 3.8627E-05
 7.2857E+01 3.7349E-05
 7.3143E+01 3.6108E-05
 7.3429E+01 3.4904E-05
 7.3714E+01 3.3736E-05
 7.4000E+01 3.2603E-05
 7.4286E+01 3.1504E-05
 7.4571E+01 3.0438E-05
 7.4857E+01 2.9404E-05
 7.5143E+01 2.8401E-05
 7.5429E+01 2.7429E-05
 7.5714E+01 2.6487E-05
 7.6000E+01 2.5573E-05
 7.6286E+01 2.4688E-05
 7.6571E+01 2.3831E-05
 7.6857E+01 2.3000E-05
 7.7143E+01 2.2195E-05
 7.7429E+01 2.1415E-05
 7.7714E+01 2.0660E-05
 7.8000E+01 1.9929E-05
 7.8286E+01 1.9221E-05
 7.8571E+01 1.8537E-05
 7.8857E+01 1.7874E-05
 7.9143E+01 1.7232E-05
 7.9429E+01 1.6612E-05
 7.9714E+01 1.6011E-05
 8.0000E+01 1.5430E-05
 8.0286E+01 1.4869E-05
 8.0571E+01 1.4326E-05
 8.0857E+01 1.3800E-05
 8.1143E+01 1.3293E-05
 8.1429E+01 1.2802E-05
 8.1714E+01 1.2328E-05
 8.2000E+01 1.1869E-05
 8.2286E+01 1.1426E-05
 8.2571E+01 1.0999E-05
 8.2857E+01 1.0586E-05
 8.3143E+01 1.0187E-05
 8.3429E+01 9.8019E-06
 8.3714E+01 9.4302E-06
 8.4000E+01 9.0711E-06
 8.4286E+01 8.7248E-06
 8.4571E+01 8.3905E-06
 8.4857E+01 8.0678E-06
 8.5143E+01 7.7567E-06
 8.5429E+01 7.4567E-06
 8.5714E+01 7.1673E-06
 8.6000E+01 6.8881E-06
 8.6286E+01 6.6190E-06
 8.6571E+01 6.3595E-06
 8.6857E+01 6.1094E-06
 8.7143E+01 5.8686E-06
 8.7429E+01 5.6363E-06
 8.7714E+01 5.4128E-06
 8.8000E+01 5.1972E-06
 8.8286E+01 4.9896E-06
 8.8571E+01 4.7897E-06
 8.8857E+01 4.5971E-06
 8.9143E+01 4.4118E-06
 8.9429E+01 4.2331E-06
 8.9714E+01 4.0616E-06
 9.0000E+01 3.8962E-06
 9.0286E+01 3.7369E-06
 9.0571E+01 3.5839E-06
 9.0857E+01 3.4361E-06
 9.1143E+01 3.2945E-06
 9.1429E+01 3.1581E-06
 9.1714E+01 3.0271E-06
 9.2000E+01 2.9010E-06
 9.2286E+01 2.7800E-06
 9.2571E+01 2.6636E-06
 9.2857E+01 2.5516E-06
 9.3143E+01 2.4441E-06
 9.3429E+01 2.3407E-06
 9.3714E+01 2.2417E-06
 9.4000E+01 2.1464E-06
 9.4286E+01 2.0549E-06
 9.4571E+01 1.9671E-06
 9.4857E+01 1.8828E-06
 9.5143E+01 1.8018E-06
 9.5429E+01 1.7241E-06
 9.5714E+01 1.6493E-06
 9.6000E+01 1.5779E-06
 9.6286E+01 1.5091E-06
 9.6571E+01 1.4433E-06
 9.6857E+01 1.3802E-06
 9.7143E+01 1.3196E-06
 9.7429E+01 1.2617E-06
 9.7714E+01 1.2060E-06
 9.8000E+01 1.1527E-06
 9.8286E+01 1.1014E-06
 9.8571E+01 1.0526E-06
 9.8857E+01 1.0056E-06
 9.9143E+01 9.6063E-07
 9.9429E+01 9.1746E-07
 9.9714E+01 8.7613E-07
 1.0000E+02 8.3667E-07
 1.0029E+02 7.9873E-07
 1.0057E+02 7.6253E-07
 1.0086E+02 7.2779E-07
 1.0114E+02 6.9454E-07
 1.0143E+02 6.6271E-07
 1.0171E+02 6.3236E-07
 1.0200E+02 6.0316E-07
 1.0229E+02 5.7526E-07
 1.0257E+02 5.4861E-07
 1.0286E+02 5.2308E-07
 1.0314E+02 4.9875E-07
 1.0343E+02 4.7542E-07
 1.0371E+02 4.5317E-07
 1.0400E+02 4.3190E-07
 1.0429E+02 4.1161E-07
 1.0457E+02 3.9217E-07
 1.0486E+02 3.7363E-07
 1.0514E+02 3.5591E-07
 1.0543E+02 3.3896E-07
 1.0571E+02 3.2289E-07
 1.0600E+02 3.0741E-07
 1.0629E+02 2.9267E-07
 1.0657E+02 2.7861E-07
 1.0686E+02 2.6517E-07
 1.0714E+02 2.5240E-07
 1.0743E+02 2.4018E-07
 1.0771E+02 2.2856E-07
 1.0800E+02 2.1743E-07
 1.0829E+02 2.0685E-07
 1.0857E+02 1.9674E-07
 1.0886E+02 1.8710E-07
 1.0914E+02 1.7791E-07
 1.0943E+02 1.6912E-07
 1.0971E+02 1.6076E-07
 1.1000E+02 1.5276E-07
 1.1029E+02 1.4517E-07
 1.1057E+02 1.3795E-07
 1.1086E+02 1.3107E-07
 1.1114E+02 1.2450E-07
 1.1143E+02 1.1826E-07
 1.1171E+02 1.1231E-07
 1.1200E+02 1.0666E-07
 1.1229E+02 1.0125E-07
 1.1257E+02 9.6090E-08
 1.1286E+02 9.1221E-08
 1.1314E+02 8.6575E-08
 1.1343E+02 8.2175E-08
 1.1371E+02 7.7939E-08
 1.1400E+02 7.3959E-08
 1.1429E+02 7.0154E-08
 1.1457E+02 6.6524E-08
 1.1486E+02 6.3082E-08
 1.1514E+02 5.9793E-08
 1.1543E+02 5.6709E-08
 1.1571E+02 5.3719E-08
 1.1600E+02 5.0937E-08
 1.1629E+02 4.8256E-08
 1.1657E+02 4.5696E-08
 1.1686E+02 4.3300E-08
 1.1714E+02 4.1027E-08
 1.1743E+02 3.8875E-08
 1.1771E+02 3.6834E-08
 1.1800E+02 3.4877E-08
 1.1829E+02 3.3031E-08
 1.1857E+02 3.1293E-08
 1.1886E+02 2.9614E-08
 1.1914E+02 2.8031E-08
 1.1943E+02 2.6501E-08
 1.1971E+02 2.5088E-08
 1.2000E+02 2.3735E-08
 1.2029E+02 2.2452E-08
 1.2057E+02 2.1240E-08
 1.2086E+02 2.0079E-08
 1.2114E+02 1.9000E-08
 1.2143E+02 1.7956E-08
 1.2171E+02 1.6978E-08
 1.2200E+02 1.6033E-08
 1.2229E+02 1.5148E-08
 1.2257E+02 1.4318E-08
 1.2286E+02 1.3525E-08
 1.2314E+02 1.2785E-08
 1.2343E+02 1.2069E-08
 1.2371E+02 1.1396E-08
 1.2400E+02 1.0755E-08
 1.2429E+02 1.0161E-08
 1.2457E+02 9.5920E-09
 1.2486E+02 9.0455E-09
 1.2514E+02 8.5400E-09
 1.2543E+02 8.0622E-09
 1.2571E+02 7.6048E-09
 1.2600E+02 7.1716E-09
 1.2629E+02 6.7714E-09
 1.2657E+02 6.3834E-09
 1.2686E+02 6.0212E-09
 1.2714E+02 5.6826E-09
 1.2743E+02 5.3554E-09
 1.2771E+02 5.0509E-09
 1.2800E+02 4.7621E-09
 1.2829E+02 4.4883E-09
 1.2857E+02 4.2278E-09
 1.2886E+02 3.9871E-09
 1.2914E+02 3.7568E-09
 1.2943E+02 3.5366E-09
 1.2971E+02 3.3309E-09
 1.3000E+02 3.1351E-09
 1.3029E+02 2.9526E-09
 1.3057E+02 2.7759E-09
 1.3086E+02 2.6145E-09
 1.3114E+02 2.4612E-09
 1.3143E+02 2.3166E-09
 1.3171E+02 2.1795E-09
 1.3200E+02 2.0501E-09
 1.3229E+02 1.9302E-09
 1.3257E+02 1.8162E-09
 1.3286E+02 1.7090E-09
 1.3314E+02 1.6055E-09
 1.3343E+02 1.5085E-09
 1.3371E+02 1.4162E-09
 1.3400E+02 1.3324E-09
 1.3429E+02 1.2511E-09
 1.3457E+02 1.1747E-09
 1.3486E+02 1.1036E-09
 1.3514E+02 1.0364E-09
 1.3543E+02 9.7379E-10
 1.3571E+02 9.1444E-10
 1.3600E+02 8.5909E-10
 1.3629E+02 8.0674E-10
 1.3657E+02 7.5718E-10
 1.3686E+02 7.1175E-10
 1.3714E+02 6.7008E-10
 1.3743E+02 6.2857E-10
 1.3771E+02 5.9014E-10
 1.3800E+02 5.5434E-10
 1.3829E+02 5.2133E-10
 1.3857E+02 4.8754E-10
 1.3886E+02 4.5742E-10
 1.3914E+02 4.2904E-10
 1.3943E+02 4.0013E-10
 1.3971E+02 3.7659E-10
 1.4000E+02 3.5192E-10
 1.4029E+02 3.2929E-10
 1.4057E+02 3.0821E-10
 1.4086E+02 2.8855E-10
 1.4114E+02 2.7074E-10
 1.4143E+02 2.5376E-10
 1.4171E+02 2.3835E-10
 1.4200E+02 2.2200E-10
 1.4229E+02 2.0774E-10
 1.4257E+02 1.9482E-10
 1.4286E+02 1.8290E-10
 1.4314E+02 1.7171E-10
 1.4343E+02 1.6028E-10
 1.4371E+02 1.5008E-10
 1.4400E+02 1.4044E-10
 1.4429E+02 1.3129E-10
 1.4457E+02 1.2301E-10
 1.4486E+02 1.1485E-10
 1.4514E+02 1.0775E-10
 1.4543E+02 1.0056E-10
 1.4571E+02 9.3803E-11
 1.4600E+02 8.8371E-11
 1.4629E+02 8.2409E-11
 1.4657E+02 7.6570E-11
 1.4686E+02 7.1354E-11
 1.4714E+02 6.7068E-11
 1.4743E+02 6.2599E-11
 1.4771E+02 5.8246E-11
 1.4800E+02 5.4349E-11
 1.4829E+02 5.0803E-11
 1.4857E+02 4.7264E-11
 1.4886E+02 4.4163E-11
 1.4914E+02 4.1535E-11
 1.4943E+02 3.8544E-11
 1.4971E+02 3.6463E-11
 1.5000E+02 3.4032E-11
 1.5029E+02 3.1567E-11
 1.5057E+02 2.9250E-11
 1.5086E+02 2.7321E-11
 1.5114E+02 2.5525E-11
 1.5143E+02 2.3416E-11
 1.5171E+02 2.1889E-11
 1.5200E+02 2.0263E-11
 1.5229E+02 1.9235E-11
 1.5257E+02 1.7955E-11
 1.5286E+02 1.6617E-11
 1.5314E+02 1.5693E-11
 1.5343E+02 1.4365E-11
 1.5371E+02 1.3374E-11
 1.5400E+02 1.2511E-11
 1.5429E+02 1.1785E-11
 1.5457E+02 1.1001E-11
 1.5486E+02 1.0022E-11
 1.5514E+02 9.5111E-12
 1.5543E+02 8.8453E-12
 1.5571E+02 8.1936E-12
 1.5600E+02 7.7787E-12
 1.5629E+02 7.1710E-12
 1.5657E+02 6.6334E-12
 1.5686E+02 6.2426E-12
 1.5714E+02 5.8609E-12
 1.5743E+02 5.2554E-12
 1.5771E+02 4.9396E-12
 1.5800E+02 4.5452E-12
 1.5829E+02 4.0987E-12
 1.5857E+02 3.9191E-12
 1.5886E+02 3.4423E-12
 1.5914E+02 3.2629E-12
 1.5943E+02 3.0447E-12
 1.5971E+02 2.8022E-12
 1.6000E+02 2.8177E-12
 1.6029E+02 2.6289E-12
 1.6057E+02 2.5705E-12
 1.6086E+02 2.3702E-12
 1.6114E+02 2.0816E-12
 1.6143E+02 1.9703E-12
 1.6171E+02 1.7531E-12
 1.6200E+02 1.5977E-12
 1.6229E+02 1.4861E-12
 1.6257E+02 1.3778E-12
 1.6286E+02 1.2757E-12
 1.6314E+02 1.1921E-12
 1.6343E+02 1.1106E-12
 1.6371E+02 9.6924E-13
 1.6400E+02 9.1984E-13
 1.6429E+02 8.2616E-13
 1.6457E+02 7.6794E-13
 1.6486E+02 7.4784E-13
 1.6514E+02 6.9108E-13
 1.6543E+02 6.8053E-13
 1.6571E+02 6.4174E-13
 1.6600E+02 5.9239E-13
 1.6629E+02 5.3222E-13
 1.6657E+02 5.3939E-13
 1.6686E+02 5.1431E-13
 1.6714E+02 4.4549E-13
 1.6743E+02 3.9173E-13
 1.6771E+02 3.3441E-13
 1.6800E+02 3.0220E-13
 1.6829E+02 2.7489E-13
 1.6857E+02 2.8090E-13
 1.6886E+02 2.3764E-13
 1.6914E+02 2.3568E-13
 1.6943E+02 2.2135E-13
 1.6971E+02 1.6605E-13
 1.7000E+02 1.8431E-13
 1.7029E+02 1.6741E-13
 1.7057E+02 1.6121E-13
 1.7086E+02 1.5831E-13
 1.7114E+02 1.3247E-13
 1.7143E+02 1.2511E-13
 1.7171E+02 1.2553E-13
 1.7200E+02 1.2248E-13
 1.7229E+02 1.1564E-13
 1.7257E+02 1.1410E-13
 1.7286E+02 1.0156E-13
 1.7314E+02 9.3687E-14
 1.7343E+02 7.2786E-14
 1.7371E+02 6.8439E-14
 1.7400E+02 7.3124E-14
 1.7429E+02 4.8502E-14
 1.7457E+02 3.8368E-14
 1.7486E+02 3.0444E-14
 1.7514E+02 2.8624E-14
 1.7543E+02 3.1320E-14
 1.7571E+02 2.6502E-14
 1.7600E+02 3.6445E-14
 1.7629E+02 3.1811E-14
 1.7657E+02 3.3656E-14
 1.7686E+02 5.2672E-14
 1.7714E+02 3.5851E-14
 1.7743E+02 3.6236E-14
 1.7771E+02 4.4231E-14
 1.7800E+02 1.8450E-14
 1.7829E+02 1.9347E-14
 1.7857E+02 1.8441E-14
 1.7886E+02 1.5625E-14
 1.7914E+02 1.9033E-14
 1.7943E+02 8.2562E-15
 1.7971E+02 1.1614E-14
 1.8000E+02 6.0121E-15
 1.8029E+02 5.2665E-15
 1.8057E+02 8.0171E-15
 1.8086E+02 1.8450E-15
 1.8114E+02 7.7321E-15
 1.8143E+02 5.7217E-15
 1.8171E+02 9.4676E-15
 1.8200E+02 1.1676E-14
 1.8229E+02 7.1892E-15
 1.8257E+02 1.2391E-14
 1.8286E+02 1.0888E-14
 1.8314E+02 8.8427E-15
 1.8343E+02 1.2933E-14
 1.8371E+02 8.0598E-15
 1.8400E+02 2.8108E-15
 1.8429E+02 2.6933E-15
 1.8457E+02 1.6473E-15
 1.8486E+02 8.4850E-16
 1.8514E+02 9.5782E-16
 1.8543E+02 1.4747E-15
 1.8571E+02 2.4339E-15
 1.8600E+02 3.9193E-15
 1.8629E+02 2.4985E-15
 1.8657E+02 5.5683E-16
 1.8686E+02 1.7461E-15
 1.8714E+02 9.6594E-16
 1.8743E+02 5.5450E-17
 1.8771E+02 1.5847E-15
 1.8800E+02 3.9407E-15
 1.8829E+02 5.2220E-15
 1.8857E+02 3.4987E-15
 1.8886E+02 3.6558E-15
 1.8914E+02 2.2593E-15
 1.8943E+02 4.8512E-16
 1.8971E+02 1.2625E-15
 1.9000E+02 7.3620E-16
 1.9029E+02 2.9578E-16
 1.9057E+02 1.9095E-16
 1.9086E+02 8.9315E-17
 1.9114E+02 5.4010E-16
 1.9143E+02 3.1036E-16
 1.9171E+02 1.0632E-15
 1.9200E+02 6.7573E-16
 1.9229E+02 5.5113E-16
 1.9257E+02 5.4214E-16
 1.9286E+02 1.9712E-16
 1.9314E+02 1.5989E-15
 1.9343E+02 7.0889E-16
 1.9371E+02 8.1160E-16
 1.9400E+02 1.9930E-15
 1.9429E+02 6.3772E-16
 1.9457E+02 9.0151E-16
 1.9486E+02 1.2440E-15
 1.9514E+02 2.1929E-16
 1.9543E+02 6.9702E-16
 1.9571E+02 2.2520E-15
 1.9600E+02 1.0510E-15
 1.9629E+02 1.9227E-16
 1.9657E+02 2.1466E-16
 1.9686E+02 1.7631E-16
 1.9714E+02 1.8839E-16
 1.9743E+02 1.0217E-16
 1.9771E+02 3.9799E-17
 1.9800E+02 2.0868E-17
 1.9829E+02 1.1289E-17
 1.9857E+02 4.6832E-18
 1.9886E+02 1.4598E-18
 1.9914E+02 3.0014E-19
 1.9943E+02 4.5308E-20
 1.9971E+02 4.5122E-21
 2.0000E+02 6.4635E-22
