 0.0000E+00 2.6801E-03
 2.8571E-01 2.6797E-03
 5.7143E-01 2.6791E-03
 8.5714E-01 2.6781E-03
 1.1429E+00 2.6769E-03
 1.4286E+00 2.6753E-03
 1.7143E+00 2.6734E-03
 2.0000E+00 2.6711E-03
 2.2857E+00 2.6685E-03
 2.5714E+00 2.6655E-03
 2.8571E+00 2.6623E-03
 3.1429E+00 2.6586E-03
 3.4286E+00 2.6547E-03
 3.7143E+00 2.6504E-03
 4.0000E+00 2.6457E-03
 4.2857E+00 2.6407E-03
 4.5714E+00 2.6354E-03
 4.8571E+00 2.6297E-03
 5.1429E+00 2.6237E-03
 5.4286E+00 2.6174E-03
 5.7143E+00 2.6108E-03
 6.0000E+00 2.6039E-03
 6.2857E+00 2.5967E-03
 6.5714E+00 2.5891E-03
 6.8571E+00 2.5813E-03
 7.1429E+00 2.5731E-03
 7.4286E+00 2.5646E-03
 7.7143E+00 2.5558E-03
 8.0000E+00 2.5468E-03
 8.2857E+00 2.5374E-03
 8.5714E+00 2.5277E-03
 8.8571E+00 2.5178E-03
 9.1429E+00 2.5076E-03
 9.4286E+00 2.4971E-03
 9.7143E+00 2.4863E-03
 1.0000E+01 2.4752E-03
 1.0286E+01 2.4639E-03
 1.0571E+01 2.4523E-03
 1.0857E+01 2.4405E-03
 1.1143E+01 2.4284E-03
 1.1429E+01 2.4160E-03
 1.1714E+01 2.4034E-03
 1.2000E+01 2.3906E-03
 1.2286E+01 2.3775E-03
 1.2571E+01 2.3641E-03
 1.2857E+01 2.3506E-03
 1.3143E+01 2.3368E-03
 1.3429E+01 2.3229E-03
 1.3714E+01 2.3086E-03
 1.4000E+01 2.2942E-03
 1.4286E+01 2.2796E-03
 1.4571E+01 2.2648E-03
 1.4857E+01 2.2498E-03
 1.5143E+01 2.2346E-03
 1.5429E+01 2.2192E-03
 1.5714E+01 2.2036E-03
 1.6000E+01 2.1879E-03
 1.6286E+01 2.1720E-03
 1.6571E+01 2.1560E-03
 1.6857E+01 2.1398E-03
 1.7143E+01 2.1234E-03
 1.7429E+01 2.1069E-03
 1.7714E+01 2.0902E-03
 1.8000E+01 2.0735E-03
 1.8286E+01 2.0565E-03
 1.8571E+01 2.0395E-03
 1.8857E+01 2.0224E-03
 1.9143E+01 2.0051E-03
 1.9429E+01 1.9877E-03
 1.9714E+01 1.9702E-03
 2.0000E+01 1.9527E-03
 2.0286E+01 1.9350E-03
 2.0571E+01 1.9173E-03
 2.0857E+01 1.8995E-03
 2.1143E+01 1.8815E-03
 2.1429E+01 1.8636E-03
 2.1714E+01 1.8455E-03
 2.2000E+01 1.8274E-03
 2.2286E+01 1.8092E-03
 2.2571E+01 1.7910E-03
 2.2857E+01 1.7728E-03
 2.3143E+01 1.7545E-03
 2.3429E+01 1.7362E-03
 2.3714E+01 1.7178E-03
 2.4000E+01 1.6995E-03
 2.4286E+01 1.6811E-03
 2.4571E+01 1.6626E-03
 2.4857E+01 1.6442E-03
 2.5143E+01 1.6258E-03
 2.5429E+01 1.6073E-03
 2.5714E+01 1.5889E-03
 2.6000E+01 1.5705E-03
 2.6286E+01 1.5521E-03
 2.6571E+01 1.5337E-03
 2.6857E+01 1.5153E-03
 2.7143E+01 1.4970E-03
 2.7429E+01 1.4787E-03
 2.7714E+01 1.4604E-03
 2.8000E+01 1.4422E-03
 2.8286E+01 1.4240E-03
 2.8571E+01 1.4058E-03
 2.8857E+01 1.3878E-03
 2.9143E+01 1.3697E-03
 2.9429E+01 1.3518E-03
 2.9714E+01 1.3338E-03
 3.0000E+01 1.3160E-03
 3.0286E+01 1.2983E-03
 3.0571E+01 1.2806E-03
 3.0857E+01 1.2630E-03
 3.1143E+01 1.2454E-03
 3.1429E+01 1.2280E-03
 3.1714E+01 1.2106E-03
 3.2000E+01 1.1933E-03
 3.2286E+01 1.1762E-03
 3.2571E+01 1.1591E-03
 3.2857E+01 1.1421E-03
 3.3143E+01 1.1252E-03
 3.3429E+01 1.1085E-03
 3.3714E+01 1.0918E-03
 3.4000E+01 1.0753E-03
 3.4286E+01 1.0588E-03
 3.4571E+01 1.0425E-03
 3.4857E+01 1.0263E-03
 3.5143E+01 1.0102E-03
 3.5429E+01 9.9429E-04
 3.5714E+01 9.7846E-04
 3.6000E+01 9.6276E-04
 3.6286E+01 9.4719E-04
 3.6571E+01 9.3176E-04
 3.6857E+01 9.1647E-04
 3.7143E+01 9.0130E-04
 3.7429E+01 8.8627E-04
 3.7714E+01 8.7138E-04
 3.8000E+01 8.5663E-04
 3.8286E+01 8.4201E-04
 3.8571E+01 8.2754E-04
 3.8857E+01 8.1322E-04
 3.9143E+01 7.9904E-04
 3.9429E+01 7.8500E-04
 3.9714E+01 7.7111E-04
 4.0000E+01 7.5737E-04
 4.0286E+01 7.4378E-04
 4.0571E+01 7.3034E-04
 4.0857E+01 7.1704E-04
 4.1143E+01 7.0390E-04
 4.1429E+01 6.9091E-04
 4.1714E+01 6.7807E-04
 4.2000E+01 6.6539E-04
 4.2286E+01 6.5285E-04
 4.2571E+01 6.4048E-04
 4.2857E+01 6.2825E-04
 4.3143E+01 6.1619E-04
 4.3429E+01 6.0427E-04
 4.3714E+01 5.9251E-04
 4.4000E+01 5.8090E-04
 4.4286E+01 5.6944E-04
 4.4571E+01 5.5814E-04
 4.4857E+01 5.4699E-04
 4.5143E+01 5.3600E-04
 4.5429E+01 5.2516E-04
 4.5714E+01 5.1447E-04
 4.6000E+01 5.0393E-04
 4.6286E+01 4.9355E-04
 4.6571E+01 4.8332E-04
 4.6857E+01 4.7324E-04
 4.7143E+01 4.6331E-04
 4.7429E+01 4.5353E-04
 4.7714E+01 4.4389E-04
 4.8000E+01 4.3441E-04
 4.8286E+01 4.2508E-04
 4.8571E+01 4.1589E-04
 4.8857E+01 4.0685E-04
 4.9143E+01 3.9796E-04
 4.9429E+01 3.8921E-04
 4.9714E+01 3.8060E-04
 5.0000E+01 3.7214E-04
 5.0286E+01 3.6381E-04
 5.0571E+01 3.5563E-04
 5.0857E+01 3.4758E-04
 5.1143E+01 3.3968E-04
 5.1429E+01 3.3191E-04
 5.1714E+01 3.2427E-04
 5.2000E+01 3.1677E-04
 5.2286E+01 3.0941E-04
 5.2571E+01 3.0218E-04
 5.2857E+01 2.9507E-04
 5.3143E+01 2.8810E-04
 5.3429E+01 2.8126E-04
 5.3714E+01 2.7454E-04
 5.4000E+01 2.6795E-04
 5.4286E+01 2.6149E-04
 5.4571E+01 2.5515E-04
 5.4857E+01 2.4892E-04
 5.5143E+01 2.4282E-04
 5.5429E+01 2.3684E-04
 5.5714E+01 2.3098E-04
 5.6000E+01 2.2523E-04
 5.6286E+01 2.1960E-04
 5.6571E+01 2.1408E-04
 5.6857E+01 2.0867E-04
 5.7143E+01 2.0337E-04
 5.7429E+01 1.9818E-04
 5.7714E+01 1.9310E-04
 5.8000E+01 1.8813E-04
 5.8286E+01 1.8326E-04
 5.8571E+01 1.7849E-04
 5.8857E+01 1.7383E-04
 5.9143E+01 1.6926E-04
 5.9429E+01 1.6480E-04
 5.9714E+01 1.6043E-04
 6.0000E+01 1.5615E-04
 6.0286E+01 1.5197E-04
 6.0571E+01 1.4789E-04
 6.0857E+01 1.4389E-04
 6.1143E+01 1.3999E-04
 6.1429E+01 1.3617E-04
 6.1714E+01 1.3244E-04
 6.2000E+01 1.2879E-04
 6.2286E+01 1.2523E-04
 6.2571E+01 1.2175E-04
 6.2857E+01 1.1836E-04
 6.3143E+01 1.1504E-04
 6.3429E+01 1.1180E-04
 6.3714E+01 1.0864E-04
 6.4000E+01 1.0556E-04
 6.4286E+01 1.0255E-04
 6.4571E+01 9.9608E-05
 6.4857E+01 9.6743E-05
 6.5143E+01 9.3948E-05
 6.5429E+01 9.1222E-05
 6.5714E+01 8.8563E-05
 6.6000E+01 8.5971E-05
 6.6286E+01 8.3444E-05
 6.6571E+01 8.0980E-05
 6.6857E+01 7.8579E-05
 6.7143E+01 7.6240E-05
 6.7429E+01 7.3961E-05
 6.7714E+01 7.1741E-05
 6.8000E+01 6.9578E-05
 6.8286E+01 6.7471E-05
 6.8571E+01 6.5421E-05
 6.8857E+01 6.3424E-05
 6.9143E+01 6.1481E-05
 6.9429E+01 5.9590E-05
 6.9714E+01 5.7748E-05
 7.0000E+01 5.5957E-05
 7.0286E+01 5.4215E-05
 7.0571E+01 5.2519E-05
 7.0857E+01 5.0870E-05
 7.1143E+01 4.9266E-05
 7.1429E+01 4.7706E-05
 7.1714E+01 4.6190E-05
 7.2000E+01 4.4716E-05
 7.2286E+01 4.3284E-05
 7.2571E+01 4.1892E-05
 7.2857E+01 4.0540E-05
 7.3143E+01 3.9226E-05
 7.3429E+01 3.7950E-05
 7.3714E+01 3.6710E-05
 7.4000E+01 3.5507E-05
 7.4286E+01 3.4339E-05
 7.4571E+01 3.3205E-05
 7.4857E+01 3.2105E-05
 7.5143E+01 3.1037E-05
 7.5429E+01 3.0000E-05
 7.5714E+01 2.8994E-05
 7.6000E+01 2.8019E-05
 7.6286E+01 2.7073E-05
 7.6571E+01 2.6155E-05
 7.6857E+01 2.5265E-05
 7.7143E+01 2.4403E-05
 7.7429E+01 2.3566E-05
 7.7714E+01 2.2756E-05
 7.8000E+01 2.1970E-05
 7.8286E+01 2.1209E-05
 7.8571E+01 2.0471E-05
 7.8857E+01 1.9757E-05
 7.9143E+01 1.9065E-05
 7.9429E+01 1.8395E-05
 7.9714E+01 1.7747E-05
 8.0000E+01 1.7119E-05
 8.0286E+01 1.6512E-05
 8.0571E+01 1.5924E-05
 8.0857E+01 1.5354E-05
 8.1143E+01 1.4803E-05
 8.1429E+01 1.4271E-05
 8.1714E+01 1.3755E-05
 8.2000E+01 1.3256E-05
 8.2286E+01 1.2774E-05
 8.2571E+01 1.2307E-05
 8.2857E+01 1.1857E-05
 8.3143E+01 1.1421E-05
 8.3429E+01 1.1000E-05
 8.3714E+01 1.0593E-05
 8.4000E+01 1.0200E-05
 8.4286E+01 9.8204E-06
 8.4571E+01 9.4534E-06
 8.4857E+01 9.0988E-06
 8.5143E+01 8.7564E-06
 8.5429E+01 8.4258E-06
 8.5714E+01 8.1065E-06
 8.6000E+01 7.7986E-06
 8.6286E+01 7.5013E-06
 8.6571E+01 7.2143E-06
 8.6857E+01 6.9373E-06
 8.7143E+01 6.6703E-06
 8.7429E+01 6.4126E-06
 8.7714E+01 6.1643E-06
 8.8000E+01 5.9246E-06
 8.8286E+01 5.6935E-06
 8.8571E+01 5.4710E-06
 8.8857E+01 5.2561E-06
 8.9143E+01 5.0493E-06
 8.9429E+01 4.8497E-06
 8.9714E+01 4.6578E-06
 9.0000E+01 4.4726E-06
 9.0286E+01 4.2946E-06
 9.0571E+01 4.1228E-06
 9.0857E+01 3.9577E-06
 9.1143E+01 3.7986E-06
 9.1429E+01 3.6455E-06
 9.1714E+01 3.4979E-06
 9.2000E+01 3.3559E-06
 9.2286E+01 3.2192E-06
 9.2571E+01 3.0876E-06
 9.2857E+01 2.9613E-06
 9.3143E+01 2.8395E-06
 9.3429E+01 2.7226E-06
 9.3714E+01 2.6101E-06
 9.4000E+01 2.5020E-06
 9.4286E+01 2.3979E-06
 9.4571E+01 2.2979E-06
 9.4857E+01 2.2018E-06
 9.5143E+01 2.1094E-06
 9.5429E+01 2.0206E-06
 9.5714E+01 1.9353E-06
 9.6000E+01 1.8536E-06
 9.6286E+01 1.7749E-06
 9.6571E+01 1.6995E-06
 9.6857E+01 1.6269E-06
 9.7143E+01 1.5572E-06
 9.7429E+01 1.4904E-06
 9.7714E+01 1.4260E-06
 9.8000E+01 1.3644E-06
 9.8286E+01 1.3052E-06
 9.8571E+01 1.2485E-06
 9.8857E+01 1.1940E-06
 9.9143E+01 1.1418E-06
 9.9429E+01 1.0918E-06
 9.9714E+01 1.0439E-06
 1.0000E+02 9.9794E-07
 1.0029E+02 9.5381E-07
 1.0057E+02 9.1153E-07
 1.0086E+02 8.7106E-07
 1.0114E+02 8.3217E-07
 1.0143E+02 7.9500E-07
 1.0171E+02 7.5934E-07
 1.0200E+02 7.2528E-07
 1.0229E+02 6.9265E-07
 1.0257E+02 6.6135E-07
 1.0286E+02 6.3152E-07
 1.0314E+02 6.0286E-07
 1.0343E+02 5.7544E-07
 1.0371E+02 5.4914E-07
 1.0400E+02 5.2401E-07
 1.0429E+02 4.9999E-07
 1.0457E+02 4.7711E-07
 1.0486E+02 4.5510E-07
 1.0514E+02 4.3407E-07
 1.0543E+02 4.1391E-07
 1.0571E+02 3.9471E-07
 1.0600E+02 3.7629E-07
 1.0629E+02 3.5867E-07
 1.0657E+02 3.4185E-07
 1.0686E+02 3.2575E-07
 1.0714E+02 3.1042E-07
 1.0743E+02 2.9569E-07
 1.0771E+02 2.8172E-07
 1.0800E+02 2.6826E-07
 1.0829E+02 2.5550E-07
 1.0857E+02 2.4327E-07
 1.0886E+02 2.3165E-07
 1.0914E+02 2.2054E-07
 1.0943E+02 2.0994E-07
 1.0971E+02 1.9984E-07
 1.1000E+02 1.9008E-07
 1.1029E+02 1.8090E-07
 1.1057E+02 1.7207E-07
 1.1086E+02 1.6370E-07
 1.1114E+02 1.5571E-07
 1.1143E+02 1.4807E-07
 1.1171E+02 1.4079E-07
 1.1200E+02 1.3388E-07
 1.1229E+02 1.2727E-07
 1.1257E+02 1.2096E-07
 1.1286E+02 1.1497E-07
 1.1314E+02 1.0924E-07
 1.1343E+02 1.0380E-07
 1.1371E+02 9.8636E-08
 1.1400E+02 9.3728E-08
 1.1429E+02 8.9024E-08
 1.1457E+02 8.4568E-08
 1.1486E+02 8.0295E-08
 1.1514E+02 7.6261E-08
 1.1543E+02 7.2401E-08
 1.1571E+02 6.8736E-08
 1.1600E+02 6.5254E-08
 1.1629E+02 6.1918E-08
 1.1657E+02 5.8761E-08
 1.1686E+02 5.5708E-08
 1.1714E+02 5.2855E-08
 1.1743E+02 5.0102E-08
 1.1771E+02 4.7520E-08
 1.1800E+02 4.5071E-08
 1.1829E+02 4.2708E-08
 1.1857E+02 4.0511E-08
 1.1886E+02 3.8369E-08
 1.1914E+02 3.6373E-08
 1.1943E+02 3.4453E-08
 1.1971E+02 3.2633E-08
 1.2000E+02 3.0929E-08
 1.2029E+02 2.9291E-08
 1.2057E+02 2.7745E-08
 1.2086E+02 2.6270E-08
 1.2114E+02 2.4887E-08
 1.2143E+02 2.3548E-08
 1.2171E+02 2.2284E-08
 1.2200E+02 2.1095E-08
 1.2229E+02 1.9958E-08
 1.2257E+02 1.8897E-08
 1.2286E+02 1.7885E-08
 1.2314E+02 1.6921E-08
 1.2343E+02 1.6001E-08
 1.2371E+02 1.5138E-08
 1.2400E+02 1.4310E-08
 1.2429E+02 1.3532E-08
 1.2457E+02 1.2804E-08
 1.2486E+02 1.2100E-08
 1.2514E+02 1.1439E-08
 1.2543E+02 1.0804E-08
 1.2571E+02 1.0211E-08
 1.2600E+02 9.6466E-09
 1.2629E+02 9.1187E-09
 1.2657E+02 8.6072E-09
 1.2686E+02 8.1347E-09
 1.2714E+02 7.6847E-09
 1.2743E+02 7.2562E-09
 1.2771E+02 6.8582E-09
 1.2800E+02 6.4651E-09
 1.2829E+02 6.1035E-09
 1.2857E+02 5.7511E-09
 1.2886E+02 5.4302E-09
 1.2914E+02 5.1215E-09
 1.2943E+02 4.8326E-09
 1.2971E+02 4.5617E-09
 1.3000E+02 4.3021E-09
 1.3029E+02 4.0609E-09
 1.3057E+02 3.8248E-09
 1.3086E+02 3.6027E-09
 1.3114E+02 3.3919E-09
 1.3143E+02 3.1987E-09
 1.3171E+02 3.0087E-09
 1.3200E+02 2.8359E-09
 1.3229E+02 2.6714E-09
 1.3257E+02 2.5136E-09
 1.3286E+02 2.3682E-09
 1.3314E+02 2.2299E-09
 1.3343E+02 2.0996E-09
 1.3371E+02 1.9794E-09
 1.3400E+02 1.8684E-09
 1.3429E+02 1.7562E-09
 1.3457E+02 1.6580E-09
 1.3486E+02 1.5585E-09
 1.3514E+02 1.4675E-09
 1.3543E+02 1.3824E-09
 1.3571E+02 1.2972E-09
 1.3600E+02 1.2224E-09
 1.3629E+02 1.1484E-09
 1.3657E+02 1.0818E-09
 1.3686E+02 1.0157E-09
 1.3714E+02 9.5442E-10
 1.3743E+02 8.9675E-10
 1.3771E+02 8.4326E-10
 1.3800E+02 7.9239E-10
 1.3829E+02 7.4268E-10
 1.3857E+02 6.9834E-10
 1.3886E+02 6.5457E-10
 1.3914E+02 6.1540E-10
 1.3943E+02 5.7848E-10
 1.3971E+02 5.4186E-10
 1.4000E+02 5.0981E-10
 1.4029E+02 4.7920E-10
 1.4057E+02 4.4802E-10
 1.4086E+02 4.2218E-10
 1.4114E+02 3.9683E-10
 1.4143E+02 3.7017E-10
 1.4171E+02 3.4787E-10
 1.4200E+02 3.2510E-10
 1.4229E+02 3.0457E-10
 1.4257E+02 2.8563E-10
 1.4286E+02 2.6775E-10
 1.4314E+02 2.5175E-10
 1.4343E+02 2.3633E-10
 1.4371E+02 2.2299E-10
 1.4400E+02 2.0813E-10
 1.4429E+02 1.9636E-10
 1.4457E+02 1.8333E-10
 1.4486E+02 1.7151E-10
 1.4514E+02 1.6152E-10
 1.4543E+02 1.4951E-10
 1.4571E+02 1.4081E-10
 1.4600E+02 1.3107E-10
 1.4629E+02 1.2345E-10
 1.4657E+02 1.1595E-10
 1.4686E+02 1.0764E-10
 1.4714E+02 1.0119E-10
 1.4743E+02 9.4729E-11
 1.4771E+02 8.8666E-11
 1.4800E+02 8.2719E-11
 1.4829E+02 7.7684E-11
 1.4857E+02 7.2662E-11
 1.4886E+02 6.7533E-11
 1.4914E+02 6.3032E-11
 1.4943E+02 5.9009E-11
 1.4971E+02 5.4895E-11
 1.5000E+02 5.1868E-11
 1.5029E+02 4.8324E-11
 1.5057E+02 4.4696E-11
 1.5086E+02 4.2050E-11
 1.5114E+02 3.9214E-11
 1.5143E+02 3.6894E-11
 1.5171E+02 3.4037E-11
 1.5200E+02 3.1481E-11
 1.5229E+02 2.9607E-11
 1.5257E+02 2.7548E-11
 1.5286E+02 2.5695E-11
 1.5314E+02 2.4291E-11
 1.5343E+02 2.2861E-11
 1.5371E+02 2.1608E-11
 1.5400E+02 2.0346E-11
 1.5429E+02 1.8930E-11
 1.5457E+02 1.7573E-11
 1.5486E+02 1.6114E-11
 1.5514E+02 1.5125E-11
 1.5543E+02 1.4239E-11
 1.5571E+02 1.3231E-11
 1.5600E+02 1.2139E-11
 1.5629E+02 1.1352E-11
 1.5657E+02 1.0471E-11
 1.5686E+02 9.6550E-12
 1.5714E+02 9.0001E-12
 1.5743E+02 8.1426E-12
 1.5771E+02 7.6313E-12
 1.5800E+02 7.1632E-12
 1.5829E+02 6.8219E-12
 1.5857E+02 6.4178E-12
 1.5886E+02 5.9820E-12
 1.5914E+02 5.5657E-12
 1.5943E+02 5.2264E-12
 1.5971E+02 4.8590E-12
 1.6000E+02 4.4672E-12
 1.6029E+02 4.2512E-12
 1.6057E+02 3.8617E-12
 1.6086E+02 3.5980E-12
 1.6114E+02 3.3730E-12
 1.6143E+02 3.1183E-12
 1.6171E+02 2.9382E-12
 1.6200E+02 2.7248E-12
 1.6229E+02 2.4927E-12
 1.6257E+02 2.2710E-12
 1.6286E+02 2.1415E-12
 1.6314E+02 2.0252E-12
 1.6343E+02 1.8343E-12
 1.6371E+02 1.7306E-12
 1.6400E+02 1.6016E-12
 1.6429E+02 1.4753E-12
 1.6457E+02 1.4107E-12
 1.6486E+02 1.2826E-12
 1.6514E+02 1.1983E-12
 1.6543E+02 1.1122E-12
 1.6571E+02 1.1284E-12
 1.6600E+02 9.8063E-13
 1.6629E+02 8.2429E-13
 1.6657E+02 8.1875E-13
 1.6686E+02 7.4260E-13
 1.6714E+02 7.3870E-13
 1.6743E+02 6.4641E-13
 1.6771E+02 6.0727E-13
 1.6800E+02 5.7948E-13
 1.6829E+02 5.0464E-13
 1.6857E+02 4.9312E-13
 1.6886E+02 4.3426E-13
 1.6914E+02 3.8509E-13
 1.6943E+02 3.5370E-13
 1.6971E+02 3.4846E-13
 1.7000E+02 3.3120E-13
 1.7029E+02 2.9726E-13
 1.7057E+02 2.7068E-13
 1.7086E+02 2.4725E-13
 1.7114E+02 2.7042E-13
 1.7143E+02 2.7452E-13
 1.7171E+02 2.1821E-13
 1.7200E+02 1.8561E-13
 1.7229E+02 1.9234E-13
 1.7257E+02 1.8113E-13
 1.7286E+02 1.6311E-13
 1.7314E+02 1.4996E-13
 1.7343E+02 1.1853E-13
 1.7371E+02 1.1155E-13
 1.7400E+02 1.1697E-13
 1.7429E+02 1.0040E-13
 1.7457E+02 7.7900E-14
 1.7486E+02 7.0455E-14
 1.7514E+02 7.8456E-14
 1.7543E+02 6.3189E-14
 1.7571E+02 7.2369E-14
 1.7600E+02 7.3243E-14
 1.7629E+02 5.1876E-14
 1.7657E+02 5.4276E-14
 1.7686E+02 5.7136E-14
 1.7714E+02 5.9919E-14
 1.7743E+02 4.2733E-14
 1.7771E+02 4.2419E-14
 1.7800E+02 4.4530E-14
 1.7829E+02 3.3218E-14
 1.7857E+02 3.7385E-14
 1.7886E+02 2.8020E-14
 1.7914E+02 3.3490E-14
 1.7943E+02 3.1735E-14
 1.7971E+02 2.0216E-14
 1.8000E+02 2.2943E-14
 1.8029E+02 1.1727E-14
 1.8057E+02 1.1717E-14
 1.8086E+02 1.1518E-14
 1.8114E+02 5.5211E-15
 1.8143E+02 8.9225E-15
 1.8171E+02 9.5910E-15
 1.8200E+02 1.3148E-14
 1.8229E+02 1.2425E-14
 1.8257E+02 2.0295E-14
 1.8286E+02 2.0338E-14
 1.8314E+02 1.5391E-14
 1.8343E+02 1.8718E-14
 1.8371E+02 1.0877E-14
 1.8400E+02 1.6302E-14
 1.8429E+02 1.3506E-14
 1.8457E+02 3.7117E-15
 1.8486E+02 3.5322E-15
 1.8514E+02 6.8351E-16
 1.8543E+02 1.7062E-15
 1.8571E+02 7.4095E-16
 1.8600E+02 2.9795E-15
 1.8629E+02 1.4791E-15
 1.8657E+02 2.7706E-15
 1.8686E+02 5.6673E-15
 1.8714E+02 1.7984E-15
 1.8743E+02 4.2608E-15
 1.8771E+02 5.3830E-15
 1.8800E+02 8.3582E-15
 1.8829E+02 5.5299E-15
 1.8857E+02 4.5065E-15
 1.8886E+02 5.4529E-15
 1.8914E+02 6.5853E-16
 1.8943E+02 1.4047E-15
 1.8971E+02 2.0462E-15
 1.9000E+02 1.4880E-15
 1.9029E+02 1.6071E-15
 1.9057E+02 6.2461E-16
 1.9086E+02 5.9971E-16
 1.9114E+02 1.0723E-15
 1.9143E+02 4.8350E-16
 1.9171E+02 3.5083E-17
 1.9200E+02 4.7682E-17
 1.9229E+02 2.1100E-15
 1.9257E+02 3.9773E-15
 1.9286E+02 1.6457E-15
 1.9314E+02 3.9147E-15
 1.9343E+02 2.5632E-15
 1.9371E+02 2.0460E-16
 1.9400E+02 2.0782E-15
 1.9429E+02 1.7881E-15
 1.9457E+02 5.1137E-16
 1.9486E+02 1.2063E-15
 1.9514E+02 4.7824E-16
 1.9543E+02 5.8039E-17
 1.9571E+02 5.5135E-16
 1.9600E+02 6.6319E-16
 1.9629E+02 7.4237E-16
 1.9657E+02 3.9484E-16
 1.9686E+02 7.3207E-17
 1.9714E+02 2.2549E-16
 1.9743E+02 1.9118E-16
 1.9771E+02 3.5480E-17
 1.9800E+02 1.7148E-18
 1.9829E+02 5.2285E-18
 1.9857E+02 5.0301E-18
 1.9886E+02 2.2644E-18
 1.9914E+02 6.0193E-19
 1.9943E+02 8.4639E-20
 1.9971E+02 6.0323E-21
 2.0000E+02 8.8345E-22
