 0.0000E+00 2.7253E-03
 2.8571E-01 2.7250E-03
 5.7143E-01 2.7244E-03
 8.5714E-01 2.7234E-03
 1.1429E+00 2.7222E-03
 1.4286E+00 2.7205E-03
 1.7143E+00 2.7185E-03
 2.0000E+00 2.7162E-03
 2.2857E+00 2.7135E-03
 2.5714E+00 2.7105E-03
 2.8571E+00 2.7071E-03
 3.1429E+00 2.7034E-03
 3.4286E+00 2.6993E-03
 3.7143E+00 2.6948E-03
 4.0000E+00 2.6900E-03
 4.2857E+00 2.6849E-03
 4.5714E+00 2.6794E-03
 4.8571E+00 2.6736E-03
 5.1429E+00 2.6674E-03
 5.4286E+00 2.6609E-03
 5.7143E+00 2.6541E-03
 6.0000E+00 2.6470E-03
 6.2857E+00 2.6395E-03
 6.5714E+00 2.6317E-03
 6.8571E+00 2.6235E-03
 7.1429E+00 2.6151E-03
 7.4286E+00 2.6063E-03
 7.7143E+00 2.5973E-03
 8.0000E+00 2.5879E-03
 8.2857E+00 2.5782E-03
 8.5714E+00 2.5682E-03
 8.8571E+00 2.5579E-03
 9.1429E+00 2.5473E-03
 9.4286E+00 2.5364E-03
 9.7143E+00 2.5253E-03
 1.0000E+01 2.5138E-03
 1.0286E+01 2.5021E-03
 1.0571E+01 2.4902E-03
 1.0857E+01 2.4779E-03
 1.1143E+01 2.4654E-03
 1.1429E+01 2.4526E-03
 1.1714E+01 2.4396E-03
 1.2000E+01 2.4263E-03
 1.2286E+01 2.4128E-03
 1.2571E+01 2.3990E-03
 1.2857E+01 2.3850E-03
 1.3143E+01 2.3708E-03
 1.3429E+01 2.3564E-03
 1.3714E+01 2.3418E-03
 1.4000E+01 2.3269E-03
 1.4286E+01 2.3118E-03
 1.4571E+01 2.2965E-03
 1.4857E+01 2.2811E-03
 1.5143E+01 2.2654E-03
 1.5429E+01 2.2496E-03
 1.5714E+01 2.2335E-03
 1.6000E+01 2.2173E-03
 1.6286E+01 2.2009E-03
 1.6571E+01 2.1844E-03
 1.6857E+01 2.1677E-03
 1.7143E+01 2.1509E-03
 1.7429E+01 2.1339E-03
 1.7714E+01 2.1167E-03
 1.8000E+01 2.0995E-03
 1.8286E+01 2.0821E-03
 1.8571E+01 2.0645E-03
 1.8857E+01 2.0469E-03
 1.9143E+01 2.0291E-03
 1.9429E+01 2.0112E-03
 1.9714E+01 1.9933E-03
 2.0000E+01 1.9752E-03
 2.0286E+01 1.9571E-03
 2.0571E+01 1.9388E-03
 2.0857E+01 1.9205E-03
 2.1143E+01 1.9021E-03
 2.1429E+01 1.8836E-03
 2.1714E+01 1.8650E-03
 2.2000E+01 1.8464E-03
 2.2286E+01 1.8278E-03
 2.2571E+01 1.8091E-03
 2.2857E+01 1.7903E-03
 2.3143E+01 1.7715E-03
 2.3429E+01 1.7527E-03
 2.3714E+01 1.7339E-03
 2.4000E+01 1.7150E-03
 2.4286E+01 1.6961E-03
 2.4571E+01 1.6772E-03
 2.4857E+01 1.6583E-03
 2.5143E+01 1.6394E-03
 2.5429E+01 1.6205E-03
 2.5714E+01 1.6016E-03
 2.6000E+01 1.5828E-03
 2.6286E+01 1.5639E-03
 2.6571E+01 1.5451E-03
 2.6857E+01 1.5263E-03
 2.7143E+01 1.5075E-03
 2.7429E+01 1.4887E-03
 2.7714E+01 1.4700E-03
 2.8000E+01 1.4514E-03
 2.8286E+01 1.4327E-03
 2.8571E+01 1.4142E-03
 2.8857E+01 1.3957E-03
 2.9143E+01 1.3772E-03
 2.9429E+01 1.3589E-03
 2.9714E+01 1.3405E-03
 3.0000E+01 1.3223E-03
 3.0286E+01 1.3042E-03
 3.0571E+01 1.2861E-03
 3.0857E+01 1.2681E-03
 3.1143E+01 1.2502E-03
 3.1429E+01 1.2324E-03
 3.1714E+01 1.2147E-03
 3.2000E+01 1.1971E-03
 3.2286E+01 1.1795E-03
 3.2571E+01 1.1621E-03
 3.2857E+01 1.1448E-03
 3.3143E+01 1.1276E-03
 3.3429E+01 1.1106E-03
 3.3714E+01 1.0936E-03
 3.4000E+01 1.0767E-03
 3.4286E+01 1.0600E-03
 3.4571E+01 1.0434E-03
 3.4857E+01 1.0269E-03
 3.5143E+01 1.0105E-03
 3.5429E+01 9.9431E-04
 3.5714E+01 9.7823E-04
 3.6000E+01 9.6227E-04
 3.6286E+01 9.4646E-04
 3.6571E+01 9.3078E-04
 3.6857E+01 9.1523E-04
 3.7143E+01 8.9983E-04
 3.7429E+01 8.8457E-04
 3.7714E+01 8.6945E-04
 3.8000E+01 8.5449E-04
 3.8286E+01 8.3966E-04
 3.8571E+01 8.2499E-04
 3.8857E+01 8.1047E-04
 3.9143E+01 7.9610E-04
 3.9429E+01 7.8187E-04
 3.9714E+01 7.6781E-04
 4.0000E+01 7.5389E-04
 4.0286E+01 7.4013E-04
 4.0571E+01 7.2653E-04
 4.0857E+01 7.1308E-04
 4.1143E+01 6.9979E-04
 4.1429E+01 6.8666E-04
 4.1714E+01 6.7368E-04
 4.2000E+01 6.6087E-04
 4.2286E+01 6.4821E-04
 4.2571E+01 6.3572E-04
 4.2857E+01 6.2338E-04
 4.3143E+01 6.1121E-04
 4.3429E+01 5.9919E-04
 4.3714E+01 5.8733E-04
 4.4000E+01 5.7563E-04
 4.4286E+01 5.6408E-04
 4.4571E+01 5.5270E-04
 4.4857E+01 5.4147E-04
 4.5143E+01 5.3041E-04
 4.5429E+01 5.1950E-04
 4.5714E+01 5.0875E-04
 4.6000E+01 4.9815E-04
 4.6286E+01 4.8772E-04
 4.6571E+01 4.7744E-04
 4.6857E+01 4.6731E-04
 4.7143E+01 4.5735E-04
 4.7429E+01 4.4753E-04
 4.7714E+01 4.3787E-04
 4.8000E+01 4.2836E-04
 4.8286E+01 4.1900E-04
 4.8571E+01 4.0980E-04
 4.8857E+01 4.0074E-04
 4.9143E+01 3.9183E-04
 4.9429E+01 3.8307E-04
 4.9714E+01 3.7445E-04
 5.0000E+01 3.6598E-04
 5.0286E+01 3.5766E-04
 5.0571E+01 3.4948E-04
 5.0857E+01 3.4144E-04
 5.1143E+01 3.3354E-04
 5.1429E+01 3.2578E-04
 5.1714E+01 3.1816E-04
 5.2000E+01 3.1069E-04
 5.2286E+01 3.0334E-04
 5.2571E+01 2.9613E-04
 5.2857E+01 2.8906E-04
 5.3143E+01 2.8211E-04
 5.3429E+01 2.7530E-04
 5.3714E+01 2.6862E-04
 5.4000E+01 2.6206E-04
 5.4286E+01 2.5563E-04
 5.4571E+01 2.4933E-04
 5.4857E+01 2.4315E-04
 5.5143E+01 2.3709E-04
 5.5429E+01 2.3115E-04
 5.5714E+01 2.2533E-04
 5.6000E+01 2.1963E-04
 5.6286E+01 2.1405E-04
 5.6571E+01 2.0858E-04
 5.6857E+01 2.0322E-04
 5.7143E+01 1.9798E-04
 5.7429E+01 1.9284E-04
 5.7714E+01 1.8781E-04
 5.8000E+01 1.8289E-04
 5.8286E+01 1.7808E-04
 5.8571E+01 1.7337E-04
 5.8857E+01 1.6876E-04
 5.9143E+01 1.6425E-04
 5.9429E+01 1.5985E-04
 5.9714E+01 1.5554E-04
 6.0000E+01 1.5132E-04
 6.0286E+01 1.4721E-04
 6.0571E+01 1.4318E-04
 6.0857E+01 1.3925E-04
 6.1143E+01 1.3540E-04
 6.1429E+01 1.3165E-04
 6.1714E+01 1.2798E-04
 6.2000E+01 1.2440E-04
 6.2286E+01 1.2090E-04
 6.2571E+01 1.1749E-04
 6.2857E+01 1.1416E-04
 6.3143E+01 1.1091E-04
 6.3429E+01 1.0774E-04
 6.3714E+01 1.0464E-04
 6.4000E+01 1.0162E-04
 6.4286E+01 9.8675E-05
 6.4571E+01 9.5801E-05
 6.4857E+01 9.2998E-05
 6.5143E+01 9.0266E-05
 6.5429E+01 8.7602E-05
 6.5714E+01 8.5006E-05
 6.6000E+01 8.2475E-05
 6.6286E+01 8.0010E-05
 6.6571E+01 7.7608E-05
 6.6857E+01 7.5268E-05
 6.7143E+01 7.2991E-05
 6.7429E+01 7.0772E-05
 6.7714E+01 6.8612E-05
 6.8000E+01 6.6508E-05
 6.8286E+01 6.4462E-05
 6.8571E+01 6.2469E-05
 6.8857E+01 6.0530E-05
 6.9143E+01 5.8643E-05
 6.9429E+01 5.6807E-05
 6.9714E+01 5.5023E-05
 7.0000E+01 5.3287E-05
 7.0286E+01 5.1600E-05
 7.0571E+01 4.9959E-05
 7.0857E+01 4.8365E-05
 7.1143E+01 4.6814E-05
 7.1429E+01 4.5308E-05
 7.1714E+01 4.3843E-05
 7.2000E+01 4.2421E-05
 7.2286E+01 4.1039E-05
 7.2571E+01 3.9698E-05
 7.2857E+01 3.8396E-05
 7.3143E+01 3.7131E-05
 7.3429E+01 3.5903E-05
 7.3714E+01 3.4712E-05
 7.4000E+01 3.3555E-05
 7.4286E+01 3.2432E-05
 7.4571E+01 3.1344E-05
 7.4857E+01 3.0287E-05
 7.5143E+01 2.9262E-05
 7.5429E+01 2.8268E-05
 7.5714E+01 2.7305E-05
 7.6000E+01 2.6372E-05
 7.6286E+01 2.5466E-05
 7.6571E+01 2.4589E-05
 7.6857E+01 2.3739E-05
 7.7143E+01 2.2915E-05
 7.7429E+01 2.2117E-05
 7.7714E+01 2.1344E-05
 7.8000E+01 2.0594E-05
 7.8286E+01 1.9869E-05
 7.8571E+01 1.9167E-05
 7.8857E+01 1.8488E-05
 7.9143E+01 1.7830E-05
 7.9429E+01 1.7194E-05
 7.9714E+01 1.6577E-05
 8.0000E+01 1.5981E-05
 8.0286E+01 1.5404E-05
 8.0571E+01 1.4845E-05
 8.0857E+01 1.4306E-05
 8.1143E+01 1.3783E-05
 8.1429E+01 1.3279E-05
 8.1714E+01 1.2791E-05
 8.2000E+01 1.2320E-05
 8.2286E+01 1.1864E-05
 8.2571E+01 1.1423E-05
 8.2857E+01 1.0998E-05
 8.3143E+01 1.0587E-05
 8.3429E+01 1.0191E-05
 8.3714E+01 9.8068E-06
 8.4000E+01 9.4369E-06
 8.4286E+01 9.0795E-06
 8.4571E+01 8.7343E-06
 8.4857E+01 8.4011E-06
 8.5143E+01 8.0798E-06
 8.5429E+01 7.7697E-06
 8.5714E+01 7.4704E-06
 8.6000E+01 7.1821E-06
 8.6286E+01 6.9037E-06
 8.6571E+01 6.6353E-06
 8.6857E+01 6.3763E-06
 8.7143E+01 6.1267E-06
 8.7429E+01 5.8862E-06
 8.7714E+01 5.6545E-06
 8.8000E+01 5.4313E-06
 8.8286E+01 5.2162E-06
 8.8571E+01 5.0088E-06
 8.8857E+01 4.8091E-06
 8.9143E+01 4.6167E-06
 8.9429E+01 4.4313E-06
 8.9714E+01 4.2530E-06
 9.0000E+01 4.0813E-06
 9.0286E+01 3.9160E-06
 9.0571E+01 3.7568E-06
 9.0857E+01 3.6039E-06
 9.1143E+01 3.4565E-06
 9.1429E+01 3.3147E-06
 9.1714E+01 3.1785E-06
 9.2000E+01 3.0472E-06
 9.2286E+01 2.9212E-06
 9.2571E+01 2.8000E-06
 9.2857E+01 2.6834E-06
 9.3143E+01 2.5712E-06
 9.3429E+01 2.4633E-06
 9.3714E+01 2.3596E-06
 9.4000E+01 2.2602E-06
 9.4286E+01 2.1646E-06
 9.4571E+01 2.0728E-06
 9.4857E+01 1.9846E-06
 9.5143E+01 1.9000E-06
 9.5429E+01 1.8185E-06
 9.5714E+01 1.7405E-06
 9.6000E+01 1.6654E-06
 9.6286E+01 1.5936E-06
 9.6571E+01 1.5247E-06
 9.6857E+01 1.4585E-06
 9.7143E+01 1.3951E-06
 9.7429E+01 1.3341E-06
 9.7714E+01 1.2759E-06
 9.8000E+01 1.2198E-06
 9.8286E+01 1.1662E-06
 9.8571E+01 1.1147E-06
 9.8857E+01 1.0653E-06
 9.9143E+01 1.0181E-06
 9.9429E+01 9.7274E-07
 9.9714E+01 9.2929E-07
 1.0000E+02 8.8772E-07
 1.0029E+02 8.4784E-07
 1.0057E+02 8.0966E-07
 1.0086E+02 7.7310E-07
 1.0114E+02 7.3810E-07
 1.0143E+02 7.0469E-07
 1.0171E+02 6.7260E-07
 1.0200E+02 6.4199E-07
 1.0229E+02 6.1249E-07
 1.0257E+02 5.8445E-07
 1.0286E+02 5.5753E-07
 1.0314E+02 5.3178E-07
 1.0343E+02 5.0720E-07
 1.0371E+02 4.8364E-07
 1.0400E+02 4.6117E-07
 1.0429E+02 4.3957E-07
 1.0457E+02 4.1902E-07
 1.0486E+02 3.9923E-07
 1.0514E+02 3.8047E-07
 1.0543E+02 3.6247E-07
 1.0571E+02 3.4529E-07
 1.0600E+02 3.2900E-07
 1.0629E+02 3.1332E-07
 1.0657E+02 2.9841E-07
 1.0686E+02 2.8412E-07
 1.0714E+02 2.7052E-07
 1.0743E+02 2.5751E-07
 1.0771E+02 2.4510E-07
 1.0800E+02 2.3327E-07
 1.0829E+02 2.2198E-07
 1.0857E+02 2.1122E-07
 1.0886E+02 2.0096E-07
 1.0914E+02 1.9120E-07
 1.0943E+02 1.8183E-07
 1.0971E+02 1.7295E-07
 1.1000E+02 1.6447E-07
 1.1029E+02 1.5636E-07
 1.1057E+02 1.4865E-07
 1.1086E+02 1.4128E-07
 1.1114E+02 1.3427E-07
 1.1143E+02 1.2760E-07
 1.1171E+02 1.2123E-07
 1.1200E+02 1.1512E-07
 1.1229E+02 1.0939E-07
 1.1257E+02 1.0389E-07
 1.1286E+02 9.8645E-08
 1.1314E+02 9.3687E-08
 1.1343E+02 8.8924E-08
 1.1371E+02 8.4415E-08
 1.1400E+02 8.0104E-08
 1.1429E+02 7.6013E-08
 1.1457E+02 7.2112E-08
 1.1486E+02 6.8416E-08
 1.1514E+02 6.4896E-08
 1.1543E+02 6.1533E-08
 1.1571E+02 5.8359E-08
 1.1600E+02 5.5330E-08
 1.1629E+02 5.2490E-08
 1.1657E+02 4.9746E-08
 1.1686E+02 4.7142E-08
 1.1714E+02 4.4695E-08
 1.1743E+02 4.2352E-08
 1.1771E+02 4.0127E-08
 1.1800E+02 3.8017E-08
 1.1829E+02 3.6001E-08
 1.1857E+02 3.4081E-08
 1.1886E+02 3.2279E-08
 1.1914E+02 3.0555E-08
 1.1943E+02 2.8940E-08
 1.1971E+02 2.7385E-08
 1.2000E+02 2.5931E-08
 1.2029E+02 2.4544E-08
 1.2057E+02 2.3231E-08
 1.2086E+02 2.1975E-08
 1.2114E+02 2.0784E-08
 1.2143E+02 1.9674E-08
 1.2171E+02 1.8597E-08
 1.2200E+02 1.7605E-08
 1.2229E+02 1.6637E-08
 1.2257E+02 1.5735E-08
 1.2286E+02 1.4878E-08
 1.2314E+02 1.4068E-08
 1.2343E+02 1.3300E-08
 1.2371E+02 1.2557E-08
 1.2400E+02 1.1861E-08
 1.2429E+02 1.1196E-08
 1.2457E+02 1.0572E-08
 1.2486E+02 9.9794E-09
 1.2514E+02 9.4223E-09
 1.2543E+02 8.8930E-09
 1.2571E+02 8.3948E-09
 1.2600E+02 7.9212E-09
 1.2629E+02 7.4797E-09
 1.2657E+02 7.0571E-09
 1.2686E+02 6.6610E-09
 1.2714E+02 6.2876E-09
 1.2743E+02 5.9239E-09
 1.2771E+02 5.5960E-09
 1.2800E+02 5.2701E-09
 1.2829E+02 4.9701E-09
 1.2857E+02 4.6819E-09
 1.2886E+02 4.4070E-09
 1.2914E+02 4.1630E-09
 1.2943E+02 3.9212E-09
 1.2971E+02 3.7014E-09
 1.3000E+02 3.4874E-09
 1.3029E+02 3.2848E-09
 1.3057E+02 3.0984E-09
 1.3086E+02 2.9159E-09
 1.3114E+02 2.7423E-09
 1.3143E+02 2.5812E-09
 1.3171E+02 2.4354E-09
 1.3200E+02 2.2910E-09
 1.3229E+02 2.1564E-09
 1.3257E+02 2.0308E-09
 1.3286E+02 1.9096E-09
 1.3314E+02 1.7970E-09
 1.3343E+02 1.6900E-09
 1.3371E+02 1.5892E-09
 1.3400E+02 1.4908E-09
 1.3429E+02 1.4013E-09
 1.3457E+02 1.3181E-09
 1.3486E+02 1.2413E-09
 1.3514E+02 1.1665E-09
 1.3543E+02 1.0948E-09
 1.3571E+02 1.0284E-09
 1.3600E+02 9.6645E-10
 1.3629E+02 9.0995E-10
 1.3657E+02 8.5237E-10
 1.3686E+02 8.0060E-10
 1.3714E+02 7.5256E-10
 1.3743E+02 7.0822E-10
 1.3771E+02 6.6472E-10
 1.3800E+02 6.2247E-10
 1.3829E+02 5.8361E-10
 1.3857E+02 5.4749E-10
 1.3886E+02 5.1472E-10
 1.3914E+02 4.8300E-10
 1.3943E+02 4.5272E-10
 1.3971E+02 4.2360E-10
 1.4000E+02 3.9838E-10
 1.4029E+02 3.7386E-10
 1.4057E+02 3.5093E-10
 1.4086E+02 3.3021E-10
 1.4114E+02 3.0942E-10
 1.4143E+02 2.8955E-10
 1.4171E+02 2.7280E-10
 1.4200E+02 2.5584E-10
 1.4229E+02 2.3804E-10
 1.4257E+02 2.2311E-10
 1.4286E+02 2.0906E-10
 1.4314E+02 1.9525E-10
 1.4343E+02 1.8228E-10
 1.4371E+02 1.7078E-10
 1.4400E+02 1.5932E-10
 1.4429E+02 1.4904E-10
 1.4457E+02 1.3938E-10
 1.4486E+02 1.3041E-10
 1.4514E+02 1.2205E-10
 1.4543E+02 1.1426E-10
 1.4571E+02 1.0728E-10
 1.4600E+02 9.9773E-11
 1.4629E+02 9.4061E-11
 1.4657E+02 8.8109E-11
 1.4686E+02 8.2612E-11
 1.4714E+02 7.7390E-11
 1.4743E+02 7.2214E-11
 1.4771E+02 6.7837E-11
 1.4800E+02 6.2755E-11
 1.4829E+02 5.8689E-11
 1.4857E+02 5.4844E-11
 1.4886E+02 5.1309E-11
 1.4914E+02 4.7910E-11
 1.4943E+02 4.4423E-11
 1.4971E+02 4.1718E-11
 1.5000E+02 3.8881E-11
 1.5029E+02 3.6349E-11
 1.5057E+02 3.4020E-11
 1.5086E+02 3.1372E-11
 1.5114E+02 2.9393E-11
 1.5143E+02 2.7402E-11
 1.5171E+02 2.5610E-11
 1.5200E+02 2.3966E-11
 1.5229E+02 2.2123E-11
 1.5257E+02 2.0802E-11
 1.5286E+02 1.9392E-11
 1.5314E+02 1.8119E-11
 1.5343E+02 1.6833E-11
 1.5371E+02 1.5834E-11
 1.5400E+02 1.4596E-11
 1.5429E+02 1.3493E-11
 1.5457E+02 1.2884E-11
 1.5486E+02 1.1803E-11
 1.5514E+02 1.0943E-11
 1.5543E+02 1.0278E-11
 1.5571E+02 9.6266E-12
 1.5600E+02 8.8685E-12
 1.5629E+02 8.2491E-12
 1.5657E+02 7.5712E-12
 1.5686E+02 6.9910E-12
 1.5714E+02 6.6194E-12
 1.5743E+02 6.2190E-12
 1.5771E+02 5.8966E-12
 1.5800E+02 5.3812E-12
 1.5829E+02 5.0588E-12
 1.5857E+02 4.6761E-12
 1.5886E+02 4.3784E-12
 1.5914E+02 4.2092E-12
 1.5943E+02 3.8012E-12
 1.5971E+02 3.5091E-12
 1.6000E+02 3.1969E-12
 1.6029E+02 2.9782E-12
 1.6057E+02 2.7955E-12
 1.6086E+02 2.5249E-12
 1.6114E+02 2.3676E-12
 1.6143E+02 2.1776E-12
 1.6171E+02 2.0963E-12
 1.6200E+02 1.9449E-12
 1.6229E+02 1.7625E-12
 1.6257E+02 1.6705E-12
 1.6286E+02 1.4611E-12
 1.6314E+02 1.3539E-12
 1.6343E+02 1.2483E-12
 1.6371E+02 1.2424E-12
 1.6400E+02 1.1662E-12
 1.6429E+02 1.0162E-12
 1.6457E+02 1.0595E-12
 1.6486E+02 9.7334E-13
 1.6514E+02 8.9489E-13
 1.6543E+02 8.3587E-13
 1.6571E+02 7.5997E-13
 1.6600E+02 7.0414E-13
 1.6629E+02 6.2523E-13
 1.6657E+02 5.8302E-13
 1.6686E+02 4.9945E-13
 1.6714E+02 4.6525E-13
 1.6743E+02 4.2503E-13
 1.6771E+02 3.6416E-13
 1.6800E+02 3.3572E-13
 1.6829E+02 3.0205E-13
 1.6857E+02 3.4867E-13
 1.6886E+02 3.2871E-13
 1.6914E+02 3.0455E-13
 1.6943E+02 3.0601E-13
 1.6971E+02 2.6293E-13
 1.7000E+02 2.9552E-13
 1.7029E+02 2.3530E-13
 1.7057E+02 2.0556E-13
 1.7086E+02 2.1759E-13
 1.7114E+02 1.4090E-13
 1.7143E+02 1.3623E-13
 1.7171E+02 1.4042E-13
 1.7200E+02 1.2534E-13
 1.7229E+02 1.1604E-13
 1.7257E+02 1.1229E-13
 1.7286E+02 9.8797E-14
 1.7314E+02 8.7603E-14
 1.7343E+02 7.8870E-14
 1.7371E+02 5.8991E-14
 1.7400E+02 6.1530E-14
 1.7429E+02 5.9374E-14
 1.7457E+02 7.8526E-14
 1.7486E+02 7.8449E-14
 1.7514E+02 6.7797E-14
 1.7543E+02 6.8661E-14
 1.7571E+02 5.5350E-14
 1.7600E+02 5.0278E-14
 1.7629E+02 4.3255E-14
 1.7657E+02 4.1155E-14
 1.7686E+02 3.3012E-14
 1.7714E+02 3.2504E-14
 1.7743E+02 2.6239E-14
 1.7771E+02 1.8902E-14
 1.7800E+02 2.6829E-14
 1.7829E+02 1.7312E-14
 1.7857E+02 1.5353E-14
 1.7886E+02 1.5078E-14
 1.7914E+02 1.3183E-14
 1.7943E+02 1.4027E-14
 1.7971E+02 1.0581E-14
 1.8000E+02 1.1079E-14
 1.8029E+02 9.8520E-15
 1.8057E+02 1.3732E-14
 1.8086E+02 1.7074E-14
 1.8114E+02 1.7204E-14
 1.8143E+02 1.9936E-14
 1.8171E+02 1.8239E-14
 1.8200E+02 1.1555E-14
 1.8229E+02 1.0505E-14
 1.8257E+02 9.4788E-15
 1.8286E+02 4.9261E-15
 1.8314E+02 8.5364E-15
 1.8343E+02 8.1268E-15
 1.8371E+02 1.3068E-15
 1.8400E+02 3.7870E-16
 1.8429E+02 3.2642E-16
 1.8457E+02 2.0176E-15
 1.8486E+02 4.1962E-15
 1.8514E+02 2.4712E-15
 1.8543E+02 5.4836E-15
 1.8571E+02 6.8690E-15
 1.8600E+02 4.4616E-15
 1.8629E+02 8.3733E-15
 1.8657E+02 5.7412E-15
 1.8686E+02 7.0519E-15
 1.8714E+02 7.6799E-15
 1.8743E+02 9.3077E-16
 1.8771E+02 3.1030E-15
 1.8800E+02 1.4965E-15
 1.8829E+02 1.1819E-15
 1.8857E+02 3.7877E-15
 1.8886E+02 5.2577E-16
 1.8914E+02 9.1686E-16
 1.8943E+02 7.7075E-16
 1.8971E+02 5.8822E-16
 1.9000E+02 3.7265E-16
 1.9029E+02 7.5678E-16
 1.9057E+02 3.2545E-15
 1.9086E+02 5.0730E-16
 1.9114E+02 3.2039E-15
 1.9143E+02 6.4676E-15
 1.9171E+02 3.7460E-15
 1.9200E+02 2.3690E-15
 1.9229E+02 1.5874E-15
 1.9257E+02 5.0503E-16
 1.9286E+02 7.4975E-16
 1.9314E+02 3.3037E-17
 1.9343E+02 5.0836E-16
 1.9371E+02 4.7033E-16
 1.9400E+02 3.4166E-16
 1.9429E+02 4.2058E-16
 1.9457E+02 3.8477E-17
 1.9486E+02 5.5901E-16
 1.9514E+02 6.0994E-16
 1.9543E+02 3.3467E-16
 1.9571E+02 2.4308E-16
 1.9600E+02 2.8576E-16
 1.9629E+02 1.7794E-16
 1.9657E+02 1.1100E-16
 1.9686E+02 1.1635E-16
 1.9714E+02 1.2097E-16
 1.9743E+02 8.7979E-17
 1.9771E+02 2.6703E-17
 1.9800E+02 8.5169E-18
 1.9829E+02 5.1364E-18
 1.9857E+02 2.5083E-18
 1.9886E+02 7.5020E-19
 1.9914E+02 1.0773E-19
 1.9943E+02 6.0506E-21
 1.9971E+02 2.3134E-21
 2.0000E+02 1.6966E-21
