 0.0000E+00 2.6350E-03
 2.8571E-01 2.6346E-03
 5.7143E-01 2.6341E-03
 8.5714E-01 2.6333E-03
 1.1429E+00 2.6321E-03
 1.4286E+00 2.6306E-03
 1.7143E+00 2.6287E-03
 2.0000E+00 2.6265E-03
 2.2857E+00 2.6240E-03
 2.5714E+00 2.6211E-03
 2.8571E+00 2.6179E-03
 3.1429E+00 2.6144E-03
 3.4286E+00 2.6106E-03
 3.7143E+00 2.6064E-03
 4.0000E+00 2.6019E-03
 4.2857E+00 2.5972E-03
 4.5714E+00 2.5920E-03
 4.8571E+00 2.5866E-03
 5.1429E+00 2.5809E-03
 5.4286E+00 2.5748E-03
 5.7143E+00 2.5684E-03
 6.0000E+00 2.5617E-03
 6.2857E+00 2.5547E-03
 6.5714E+00 2.5473E-03
 6.8571E+00 2.5397E-03
 7.1429E+00 2.5318E-03
 7.4286E+00 2.5237E-03
 7.7143E+00 2.5152E-03
 8.0000E+00 2.5064E-03
 8.2857E+00 2.4973E-03
 8.5714E+00 2.4880E-03
 8.8571E+00 2.4784E-03
 9.1429E+00 2.4685E-03
 9.4286E+00 2.4583E-03
 9.7143E+00 2.4479E-03
 1.0000E+01 2.4372E-03
 1.0286E+01 2.4262E-03
 1.0571E+01 2.4150E-03
 1.0857E+01 2.4035E-03
 1.1143E+01 2.3918E-03
 1.1429E+01 2.3798E-03
 1.1714E+01 2.3676E-03
 1.2000E+01 2.3552E-03
 1.2286E+01 2.3425E-03
 1.2571E+01 2.3296E-03
 1.2857E+01 2.3165E-03
 1.3143E+01 2.3032E-03
 1.3429E+01 2.2896E-03
 1.3714E+01 2.2758E-03
 1.4000E+01 2.2619E-03
 1.4286E+01 2.2477E-03
 1.4571E+01 2.2333E-03
 1.4857E+01 2.2188E-03
 1.5143E+01 2.2041E-03
 1.5429E+01 2.1892E-03
 1.5714E+01 2.1741E-03
 1.6000E+01 2.1588E-03
 1.6286E+01 2.1434E-03
 1.6571E+01 2.1278E-03
 1.6857E+01 2.1121E-03
 1.7143E+01 2.0962E-03
 1.7429E+01 2.0802E-03
 1.7714E+01 2.0640E-03
 1.8000E+01 2.0477E-03
 1.8286E+01 2.0313E-03
 1.8571E+01 2.0147E-03
 1.8857E+01 1.9980E-03
 1.9143E+01 1.9813E-03
 1.9429E+01 1.9644E-03
 1.9714E+01 1.9474E-03
 2.0000E+01 1.9303E-03
 2.0286E+01 1.9131E-03
 2.0571E+01 1.8958E-03
 2.0857E+01 1.8785E-03
 2.1143E+01 1.8611E-03
 2.1429E+01 1.8436E-03
 2.1714E+01 1.8260E-03
 2.2000E+01 1.8084E-03
 2.2286E+01 1.7907E-03
 2.2571E+01 1.7730E-03
 2.2857E+01 1.7552E-03
 2.3143E+01 1.7374E-03
 2.3429E+01 1.7196E-03
 2.3714E+01 1.7017E-03
 2.4000E+01 1.6838E-03
 2.4286E+01 1.6659E-03
 2.4571E+01 1.6479E-03
 2.4857E+01 1.6299E-03
 2.5143E+01 1.6120E-03
 2.5429E+01 1.5940E-03
 2.5714E+01 1.5760E-03
 2.6000E+01 1.5581E-03
 2.6286E+01 1.5401E-03
 2.6571E+01 1.5222E-03
 2.6857E+01 1.5043E-03
 2.7143E+01 1.4864E-03
 2.7429E+01 1.4685E-03
 2.7714E+01 1.4506E-03
 2.8000E+01 1.4328E-03
 2.8286E+01 1.4151E-03
 2.8571E+01 1.3973E-03
 2.8857E+01 1.3797E-03
 2.9143E+01 1.3620E-03
 2.9429E+01 1.3445E-03
 2.9714E+01 1.3269E-03
 3.0000E+01 1.3095E-03
 3.0286E+01 1.2921E-03
 3.0571E+01 1.2748E-03
 3.0857E+01 1.2575E-03
 3.1143E+01 1.2404E-03
 3.1429E+01 1.2233E-03
 3.1714E+01 1.2063E-03
 3.2000E+01 1.1893E-03
 3.2286E+01 1.1725E-03
 3.2571E+01 1.1558E-03
 3.2857E+01 1.1391E-03
 3.3143E+01 1.1226E-03
 3.3429E+01 1.1061E-03
 3.3714E+01 1.0898E-03
 3.4000E+01 1.0735E-03
 3.4286E+01 1.0574E-03
 3.4571E+01 1.0414E-03
 3.4857E+01 1.0255E-03
 3.5143E+01 1.0097E-03
 3.5429E+01 9.9399E-04
 3.5714E+01 9.7843E-04
 3.6000E+01 9.6300E-04
 3.6286E+01 9.4768E-04
 3.6571E+01 9.3250E-04
 3.6857E+01 9.1743E-04
 3.7143E+01 9.0251E-04
 3.7429E+01 8.8770E-04
 3.7714E+01 8.7303E-04
 3.8000E+01 8.5849E-04
 3.8286E+01 8.4409E-04
 3.8571E+01 8.2982E-04
 3.8857E+01 8.1569E-04
 3.9143E+01 8.0170E-04
 3.9429E+01 7.8785E-04
 3.9714E+01 7.7414E-04
 4.0000E+01 7.6058E-04
 4.0286E+01 7.4715E-04
 4.0571E+01 7.3387E-04
 4.0857E+01 7.2074E-04
 4.1143E+01 7.0775E-04
 4.1429E+01 6.9490E-04
 4.1714E+01 6.8221E-04
 4.2000E+01 6.6966E-04
 4.2286E+01 6.5726E-04
 4.2571E+01 6.4501E-04
 4.2857E+01 6.3290E-04
 4.3143E+01 6.2095E-04
 4.3429E+01 6.0914E-04
 4.3714E+01 5.9748E-04
 4.4000E+01 5.8597E-04
 4.4286E+01 5.7460E-04
 4.4571E+01 5.6339E-04
 4.4857E+01 5.5232E-04
 4.5143E+01 5.4140E-04
 4.5429E+01 5.3063E-04
 4.5714E+01 5.2001E-04
 4.6000E+01 5.0954E-04
 4.6286E+01 4.9921E-04
 4.6571E+01 4.8903E-04
 4.6857E+01 4.7900E-04
 4.7143E+01 4.6912E-04
 4.7429E+01 4.5938E-04
 4.7714E+01 4.4978E-04
 4.8000E+01 4.4033E-04
 4.8286E+01 4.3102E-04
 4.8571E+01 4.2186E-04
 4.8857E+01 4.1284E-04
 4.9143E+01 4.0397E-04
 4.9429E+01 3.9523E-04
 4.9714E+01 3.8664E-04
 5.0000E+01 3.7818E-04
 5.0286E+01 3.6986E-04
 5.0571E+01 3.6168E-04
 5.0857E+01 3.5363E-04
 5.1143E+01 3.4572E-04
 5.1429E+01 3.3794E-04
 5.1714E+01 3.3029E-04
 5.2000E+01 3.2278E-04
 5.2286E+01 3.1540E-04
 5.2571E+01 3.0814E-04
 5.2857E+01 3.0102E-04
 5.3143E+01 2.9403E-04
 5.3429E+01 2.8716E-04
 5.3714E+01 2.8042E-04
 5.4000E+01 2.7380E-04
 5.4286E+01 2.6730E-04
 5.4571E+01 2.6092E-04
 5.4857E+01 2.5466E-04
 5.5143E+01 2.4853E-04
 5.5429E+01 2.4251E-04
 5.5714E+01 2.3660E-04
 5.6000E+01 2.3081E-04
 5.6286E+01 2.2514E-04
 5.6571E+01 2.1957E-04
 5.6857E+01 2.1412E-04
 5.7143E+01 2.0877E-04
 5.7429E+01 2.0353E-04
 5.7714E+01 1.9840E-04
 5.8000E+01 1.9337E-04
 5.8286E+01 1.8844E-04
 5.8571E+01 1.8362E-04
 5.8857E+01 1.7890E-04
 5.9143E+01 1.7428E-04
 5.9429E+01 1.6975E-04
 5.9714E+01 1.6533E-04
 6.0000E+01 1.6100E-04
 6.0286E+01 1.5676E-04
 6.0571E+01 1.5261E-04
 6.0857E+01 1.4856E-04
 6.1143E+01 1.4459E-04
 6.1429E+01 1.4072E-04
 6.1714E+01 1.3693E-04
 6.2000E+01 1.3322E-04
 6.2286E+01 1.2960E-04
 6.2571E+01 1.2606E-04
 6.2857E+01 1.2260E-04
 6.3143E+01 1.1922E-04
 6.3429E+01 1.1592E-04
 6.3714E+01 1.1270E-04
 6.4000E+01 1.0955E-04
 6.4286E+01 1.0647E-04
 6.4571E+01 1.0348E-04
 6.4857E+01 1.0055E-04
 6.5143E+01 9.7690E-05
 6.5429E+01 9.4901E-05
 6.5714E+01 9.2181E-05
 6.6000E+01 8.9527E-05
 6.6286E+01 8.6940E-05
 6.6571E+01 8.4416E-05
 6.6857E+01 8.1955E-05
 6.7143E+01 7.9555E-05
 6.7429E+01 7.7214E-05
 6.7714E+01 7.4935E-05
 6.8000E+01 7.2712E-05
 6.8286E+01 7.0547E-05
 6.8571E+01 6.8437E-05
 6.8857E+01 6.6382E-05
 6.9143E+01 6.4380E-05
 6.9429E+01 6.2432E-05
 6.9714E+01 6.0535E-05
 7.0000E+01 5.8688E-05
 7.0286E+01 5.6890E-05
 7.0571E+01 5.5140E-05
 7.0857E+01 5.3437E-05
 7.1143E+01 5.1780E-05
 7.1429E+01 5.0168E-05
 7.1714E+01 4.8601E-05
 7.2000E+01 4.7077E-05
 7.2286E+01 4.5595E-05
 7.2571E+01 4.4154E-05
 7.2857E+01 4.2753E-05
 7.3143E+01 4.1391E-05
 7.3429E+01 4.0067E-05
 7.3714E+01 3.8780E-05
 7.4000E+01 3.7530E-05
 7.4286E+01 3.6315E-05
 7.4571E+01 3.5135E-05
 7.4857E+01 3.3989E-05
 7.5143E+01 3.2877E-05
 7.5429E+01 3.1796E-05
 7.5714E+01 3.0748E-05
 7.6000E+01 2.9730E-05
 7.6286E+01 2.8743E-05
 7.6571E+01 2.7784E-05
 7.6857E+01 2.6855E-05
 7.7143E+01 2.5953E-05
 7.7429E+01 2.5078E-05
 7.7714E+01 2.4229E-05
 7.8000E+01 2.3407E-05
 7.8286E+01 2.2609E-05
 7.8571E+01 2.1835E-05
 7.8857E+01 2.1086E-05
 7.9143E+01 2.0359E-05
 7.9429E+01 1.9655E-05
 7.9714E+01 1.8974E-05
 8.0000E+01 1.8313E-05
 8.0286E+01 1.7674E-05
 8.0571E+01 1.7054E-05
 8.0857E+01 1.6454E-05
 8.1143E+01 1.5874E-05
 8.1429E+01 1.5312E-05
 8.1714E+01 1.4768E-05
 8.2000E+01 1.4241E-05
 8.2286E+01 1.3732E-05
 8.2571E+01 1.3239E-05
 8.2857E+01 1.2762E-05
 8.3143E+01 1.2301E-05
 8.3429E+01 1.1855E-05
 8.3714E+01 1.1423E-05
 8.4000E+01 1.1006E-05
 8.4286E+01 1.0603E-05
 8.4571E+01 1.0213E-05
 8.4857E+01 9.8361E-06
 8.5143E+01 9.4721E-06
 8.5429E+01 9.1203E-06
 8.5714E+01 8.7806E-06
 8.6000E+01 8.4525E-06
 8.6286E+01 8.1358E-06
 8.6571E+01 7.8301E-06
 8.6857E+01 7.5344E-06
 8.7143E+01 7.2495E-06
 8.7429E+01 6.9739E-06
 8.7714E+01 6.7084E-06
 8.8000E+01 6.4521E-06
 8.8286E+01 6.2046E-06
 8.8571E+01 5.9660E-06
 8.8857E+01 5.7356E-06
 8.9143E+01 5.5136E-06
 8.9429E+01 5.2995E-06
 8.9714E+01 5.0929E-06
 9.0000E+01 4.8937E-06
 9.0286E+01 4.7020E-06
 9.0571E+01 4.5168E-06
 9.0857E+01 4.3387E-06
 9.1143E+01 4.1669E-06
 9.1429E+01 4.0014E-06
 9.1714E+01 3.8423E-06
 9.2000E+01 3.6885E-06
 9.2286E+01 3.5410E-06
 9.2571E+01 3.3986E-06
 9.2857E+01 3.2618E-06
 9.3143E+01 3.1300E-06
 9.3429E+01 3.0031E-06
 9.3714E+01 2.8810E-06
 9.4000E+01 2.7635E-06
 9.4286E+01 2.6505E-06
 9.4571E+01 2.5415E-06
 9.4857E+01 2.4371E-06
 9.5143E+01 2.3364E-06
 9.5429E+01 2.2399E-06
 9.5714E+01 2.1468E-06
 9.6000E+01 2.0574E-06
 9.6286E+01 1.9716E-06
 9.6571E+01 1.8891E-06
 9.6857E+01 1.8099E-06
 9.7143E+01 1.7337E-06
 9.7429E+01 1.6604E-06
 9.7714E+01 1.5902E-06
 9.8000E+01 1.5228E-06
 9.8286E+01 1.4579E-06
 9.8571E+01 1.3956E-06
 9.8857E+01 1.3358E-06
 9.9143E+01 1.2783E-06
 9.9429E+01 1.2231E-06
 9.9714E+01 1.1703E-06
 1.0000E+02 1.1194E-06
 1.0029E+02 1.0709E-06
 1.0057E+02 1.0242E-06
 1.0086E+02 9.7958E-07
 1.0114E+02 9.3669E-07
 1.0143E+02 8.9543E-07
 1.0171E+02 8.5595E-07
 1.0200E+02 8.1807E-07
 1.0229E+02 7.8188E-07
 1.0257E+02 7.4709E-07
 1.0286E+02 7.1379E-07
 1.0314E+02 6.8192E-07
 1.0343E+02 6.5137E-07
 1.0371E+02 6.2206E-07
 1.0400E+02 5.9407E-07
 1.0429E+02 5.6725E-07
 1.0457E+02 5.4155E-07
 1.0486E+02 5.1701E-07
 1.0514E+02 4.9345E-07
 1.0543E+02 4.7095E-07
 1.0571E+02 4.4932E-07
 1.0600E+02 4.2873E-07
 1.0629E+02 4.0897E-07
 1.0657E+02 3.9012E-07
 1.0686E+02 3.7209E-07
 1.0714E+02 3.5486E-07
 1.0743E+02 3.3842E-07
 1.0771E+02 3.2267E-07
 1.0800E+02 3.0766E-07
 1.0829E+02 2.9324E-07
 1.0857E+02 2.7952E-07
 1.0886E+02 2.6634E-07
 1.0914E+02 2.5379E-07
 1.0943E+02 2.4178E-07
 1.0971E+02 2.3035E-07
 1.1000E+02 2.1940E-07
 1.1029E+02 2.0891E-07
 1.1057E+02 1.9892E-07
 1.1086E+02 1.8940E-07
 1.1114E+02 1.8027E-07
 1.1143E+02 1.7159E-07
 1.1171E+02 1.6329E-07
 1.1200E+02 1.5539E-07
 1.1229E+02 1.4783E-07
 1.1257E+02 1.4062E-07
 1.1286E+02 1.3374E-07
 1.1314E+02 1.2717E-07
 1.1343E+02 1.2096E-07
 1.1371E+02 1.1500E-07
 1.1400E+02 1.0935E-07
 1.1429E+02 1.0393E-07
 1.1457E+02 9.8815E-08
 1.1486E+02 9.3867E-08
 1.1514E+02 8.9192E-08
 1.1543E+02 8.4745E-08
 1.1571E+02 8.0464E-08
 1.1600E+02 7.6451E-08
 1.1629E+02 7.2615E-08
 1.1657E+02 6.8988E-08
 1.1686E+02 6.5502E-08
 1.1714E+02 6.2228E-08
 1.1743E+02 5.9085E-08
 1.1771E+02 5.6094E-08
 1.1800E+02 5.3230E-08
 1.1829E+02 5.0513E-08
 1.1857E+02 4.7910E-08
 1.1886E+02 4.5452E-08
 1.1914E+02 4.3122E-08
 1.1943E+02 4.0897E-08
 1.1971E+02 3.8809E-08
 1.2000E+02 3.6788E-08
 1.2029E+02 3.4895E-08
 1.2057E+02 3.3069E-08
 1.2086E+02 3.1357E-08
 1.2114E+02 2.9713E-08
 1.2143E+02 2.8155E-08
 1.2171E+02 2.6678E-08
 1.2200E+02 2.5264E-08
 1.2229E+02 2.3950E-08
 1.2257E+02 2.2673E-08
 1.2286E+02 2.1478E-08
 1.2314E+02 2.0330E-08
 1.2343E+02 1.9250E-08
 1.2371E+02 1.8221E-08
 1.2400E+02 1.7232E-08
 1.2429E+02 1.6306E-08
 1.2457E+02 1.5420E-08
 1.2486E+02 1.4587E-08
 1.2514E+02 1.3797E-08
 1.2543E+02 1.3045E-08
 1.2571E+02 1.2335E-08
 1.2600E+02 1.1676E-08
 1.2629E+02 1.1039E-08
 1.2657E+02 1.0441E-08
 1.2686E+02 9.8735E-09
 1.2714E+02 9.3303E-09
 1.2743E+02 8.8174E-09
 1.2771E+02 8.3388E-09
 1.2800E+02 7.8803E-09
 1.2829E+02 7.4468E-09
 1.2857E+02 7.0426E-09
 1.2886E+02 6.6475E-09
 1.2914E+02 6.2842E-09
 1.2943E+02 5.9276E-09
 1.2971E+02 5.5996E-09
 1.3000E+02 5.2846E-09
 1.3029E+02 4.9841E-09
 1.3057E+02 4.7094E-09
 1.3086E+02 4.4401E-09
 1.3114E+02 4.1949E-09
 1.3143E+02 3.9514E-09
 1.3171E+02 3.7261E-09
 1.3200E+02 3.5173E-09
 1.3229E+02 3.3161E-09
 1.3257E+02 3.1323E-09
 1.3286E+02 2.9488E-09
 1.3314E+02 2.7853E-09
 1.3343E+02 2.6226E-09
 1.3371E+02 2.4703E-09
 1.3400E+02 2.3265E-09
 1.3429E+02 2.1860E-09
 1.3457E+02 2.0638E-09
 1.3486E+02 1.9424E-09
 1.3514E+02 1.8338E-09
 1.3543E+02 1.7223E-09
 1.3571E+02 1.6240E-09
 1.3600E+02 1.5286E-09
 1.3629E+02 1.4356E-09
 1.3657E+02 1.3546E-09
 1.3686E+02 1.2719E-09
 1.3714E+02 1.1994E-09
 1.3743E+02 1.1267E-09
 1.3771E+02 1.0601E-09
 1.3800E+02 9.9855E-10
 1.3829E+02 9.3905E-10
 1.3857E+02 8.8094E-10
 1.3886E+02 8.2866E-10
 1.3914E+02 7.7920E-10
 1.3943E+02 7.3426E-10
 1.3971E+02 6.9289E-10
 1.4000E+02 6.4895E-10
 1.4029E+02 6.1041E-10
 1.4057E+02 5.7314E-10
 1.4086E+02 5.4086E-10
 1.4114E+02 5.0639E-10
 1.4143E+02 4.7669E-10
 1.4171E+02 4.4885E-10
 1.4200E+02 4.2032E-10
 1.4229E+02 3.9632E-10
 1.4257E+02 3.7117E-10
 1.4286E+02 3.4854E-10
 1.4314E+02 3.2611E-10
 1.4343E+02 3.0591E-10
 1.4371E+02 2.8582E-10
 1.4400E+02 2.6912E-10
 1.4429E+02 2.5288E-10
 1.4457E+02 2.3687E-10
 1.4486E+02 2.2198E-10
 1.4514E+02 2.0606E-10
 1.4543E+02 1.9279E-10
 1.4571E+02 1.8060E-10
 1.4600E+02 1.6965E-10
 1.4629E+02 1.5895E-10
 1.4657E+02 1.4941E-10
 1.4686E+02 1.4002E-10
 1.4714E+02 1.3181E-10
 1.4743E+02 1.2368E-10
 1.4771E+02 1.1594E-10
 1.4800E+02 1.0916E-10
 1.4829E+02 1.0206E-10
 1.4857E+02 9.6096E-11
 1.4886E+02 8.9670E-11
 1.4914E+02 8.4058E-11
 1.4943E+02 7.7932E-11
 1.4971E+02 7.2566E-11
 1.5000E+02 6.8187E-11
 1.5029E+02 6.3268E-11
 1.5057E+02 5.9971E-11
 1.5086E+02 5.5985E-11
 1.5114E+02 5.2755E-11
 1.5143E+02 4.9761E-11
 1.5171E+02 4.6052E-11
 1.5200E+02 4.2939E-11
 1.5229E+02 3.9942E-11
 1.5257E+02 3.7363E-11
 1.5286E+02 3.4711E-11
 1.5314E+02 3.3002E-11
 1.5343E+02 3.0580E-11
 1.5371E+02 2.8405E-11
 1.5400E+02 2.6801E-11
 1.5429E+02 2.4612E-11
 1.5457E+02 2.2928E-11
 1.5486E+02 2.1457E-11
 1.5514E+02 2.0098E-11
 1.5543E+02 1.8552E-11
 1.5571E+02 1.7373E-11
 1.5600E+02 1.6220E-11
 1.5629E+02 1.5333E-11
 1.5657E+02 1.4209E-11
 1.5686E+02 1.3259E-11
 1.5714E+02 1.2330E-11
 1.5743E+02 1.1402E-11
 1.5771E+02 1.1023E-11
 1.5800E+02 1.0094E-11
 1.5829E+02 9.7400E-12
 1.5857E+02 8.9747E-12
 1.5886E+02 8.1948E-12
 1.5914E+02 7.6706E-12
 1.5943E+02 6.8935E-12
 1.5971E+02 6.5908E-12
 1.6000E+02 6.1261E-12
 1.6029E+02 5.7455E-12
 1.6057E+02 5.2838E-12
 1.6086E+02 5.0812E-12
 1.6114E+02 4.7942E-12
 1.6143E+02 4.3597E-12
 1.6171E+02 4.2160E-12
 1.6200E+02 3.7838E-12
 1.6229E+02 3.5464E-12
 1.6257E+02 3.3858E-12
 1.6286E+02 2.9369E-12
 1.6314E+02 2.7415E-12
 1.6343E+02 2.4943E-12
 1.6371E+02 2.2263E-12
 1.6400E+02 2.1818E-12
 1.6429E+02 2.0029E-12
 1.6457E+02 1.8913E-12
 1.6486E+02 1.7565E-12
 1.6514E+02 1.6722E-12
 1.6543E+02 1.5684E-12
 1.6571E+02 1.4151E-12
 1.6600E+02 1.3251E-12
 1.6629E+02 1.2127E-12
 1.6657E+02 1.1837E-12
 1.6686E+02 1.0755E-12
 1.6714E+02 1.0326E-12
 1.6743E+02 1.0154E-12
 1.6771E+02 9.2823E-13
 1.6800E+02 9.0885E-13
 1.6829E+02 8.3369E-13
 1.6857E+02 7.1034E-13
 1.6886E+02 7.0782E-13
 1.6914E+02 6.0376E-13
 1.6943E+02 5.0786E-13
 1.6971E+02 5.1605E-13
 1.7000E+02 4.1073E-13
 1.7029E+02 4.0873E-13
 1.7057E+02 3.8524E-13
 1.7086E+02 3.1738E-13
 1.7114E+02 3.2080E-13
 1.7143E+02 3.2399E-13
 1.7171E+02 3.1711E-13
 1.7200E+02 2.9036E-13
 1.7229E+02 2.8257E-13
 1.7257E+02 2.5261E-13
 1.7286E+02 2.3524E-13
 1.7314E+02 2.3479E-13
 1.7343E+02 1.9450E-13
 1.7371E+02 1.6729E-13
 1.7400E+02 1.6748E-13
 1.7429E+02 1.4612E-13
 1.7457E+02 1.3412E-13
 1.7486E+02 1.2666E-13
 1.7514E+02 1.1574E-13
 1.7543E+02 1.0558E-13
 1.7571E+02 8.6033E-14
 1.7600E+02 7.8176E-14
 1.7629E+02 8.4479E-14
 1.7657E+02 7.6738E-14
 1.7686E+02 7.2968E-14
 1.7714E+02 8.9305E-14
 1.7743E+02 7.3093E-14
 1.7771E+02 7.3436E-14
 1.7800E+02 6.3659E-14
 1.7829E+02 4.5826E-14
 1.7857E+02 5.2221E-14
 1.7886E+02 3.8958E-14
 1.7914E+02 3.3452E-14
 1.7943E+02 3.0880E-14
 1.7971E+02 3.4882E-14
 1.8000E+02 3.3896E-14
 1.8029E+02 3.7993E-14
 1.8057E+02 3.9817E-14
 1.8086E+02 2.0085E-14
 1.8114E+02 1.8392E-14
 1.8143E+02 1.4801E-14
 1.8171E+02 1.8089E-14
 1.8200E+02 1.6657E-14
 1.8229E+02 1.5578E-14
 1.8257E+02 2.4784E-14
 1.8286E+02 1.2361E-14
 1.8314E+02 9.5129E-15
 1.8343E+02 1.0102E-14
 1.8371E+02 8.3538E-15
 1.8400E+02 1.0956E-14
 1.8429E+02 8.4354E-15
 1.8457E+02 1.0539E-14
 1.8486E+02 9.9743E-15
 1.8514E+02 1.3731E-14
 1.8543E+02 1.3561E-14
 1.8571E+02 8.3285E-15
 1.8600E+02 8.4127E-15
 1.8629E+02 6.6364E-15
 1.8657E+02 9.7314E-15
 1.8686E+02 5.4490E-15
 1.8714E+02 8.4713E-16
 1.8743E+02 3.0777E-15
 1.8771E+02 2.1911E-15
 1.8800E+02 1.0391E-15
 1.8829E+02 9.8877E-16
 1.8857E+02 1.3323E-15
 1.8886E+02 2.5762E-15
 1.8914E+02 4.1466E-15
 1.8943E+02 4.4850E-15
 1.8971E+02 4.7940E-15
 1.9000E+02 2.5856E-15
 1.9029E+02 3.2100E-15
 1.9057E+02 5.8044E-15
 1.9086E+02 3.7352E-15
 1.9114E+02 2.1927E-15
 1.9143E+02 1.0198E-15
 1.9171E+02 1.5368E-15
 1.9200E+02 1.9780E-15
 1.9229E+02 6.2023E-16
 1.9257E+02 1.1246E-15
 1.9286E+02 1.0402E-15
 1.9314E+02 4.1041E-16
 1.9343E+02 6.9943E-17
 1.9371E+02 5.3563E-17
 1.9400E+02 2.7604E-16
 1.9429E+02 3.9015E-16
 1.9457E+02 6.2285E-16
 1.9486E+02 1.3486E-16
 1.9514E+02 1.4699E-15
 1.9543E+02 1.5369E-15
 1.9571E+02 5.9119E-16
 1.9600E+02 2.8786E-15
 1.9629E+02 6.5587E-16
 1.9657E+02 2.7826E-16
 1.9686E+02 4.4700E-16
 1.9714E+02 6.4835E-17
 1.9743E+02 4.6740E-17
 1.9771E+02 1.1219E-17
 1.9800E+02 5.1008E-19
 1.9829E+02 1.7383E-18
 1.9857E+02 1.1529E-18
 1.9886E+02 3.0930E-19
 1.9914E+02 5.5393E-20
 1.9943E+02 4.4518E-20
 1.9971E+02 1.6279E-20
 2.0000E+02 1.6773E-20
