-1.6617E+02 8.0678E-01
-1.6534E+02 8.0676E-01
-1.6451E+02 8.0676E-01
-1.6367E+02 8.0677E-01
-1.6284E+02 8.0680E-01
-1.6200E+02 8.0689E-01
-1.6117E+02 8.0686E-01
-1.6034E+02 8.0689E-01
-1.5950E+02 8.0689E-01
-1.5867E+02 8.0691E-01
-1.5784E+02 8.0689E-01
-1.5700E+02 8.0686E-01
-1.5617E+02 8.0696E-01
-1.5533E+02 8.0693E-01
-1.5450E+02 8.0696E-01
-1.5367E+02 8.0701E-01
-1.5283E+02 8.0701E-01
-1.5200E+02 8.0699E-01
-1.5116E+02 8.0701E-01
-1.5033E+02 8.0706E-01
-1.4950E+02 8.0700E-01
-1.4866E+02 8.0704E-01
-1.4783E+02 8.0708E-01
-1.4699E+02 8.0712E-01
-1.4616E+02 8.0714E-01
-1.4533E+02 8.0710E-01
-1.4449E+02 8.0713E-01
-1.4366E+02 8.0718E-01
-1.4283E+02 8.0719E-01
-1.4199E+02 8.0722E-01
-1.4116E+02 8.0724E-01
-1.4032E+02 8.0722E-01
-1.3949E+02 8.0729E-01
-1.3866E+02 8.0728E-01
-1.3782E+02 8.0731E-01
-1.3699E+02 8.0727E-01
-1.3615E+02 8.0737E-01
-1.3532E+02 8.0734E-01
-1.3449E+02 8.0735E-01
-1.3365E+02 8.0742E-01
-1.3282E+02 8.0739E-01
-1.3198E+02 8.0746E-01
-1.3115E+02 8.0740E-01
-1.3032E+02 8.0743E-01
-1.2948E+02 8.0746E-01
-1.2865E+02 8.0749E-01
-1.2782E+02 8.0745E-01
-1.2698E+02 8.0743E-01
-1.2615E+02 8.0752E-01
-1.2531E+02 8.0752E-01
-1.2448E+02 8.0752E-01
-1.2365E+02 8.0756E-01
-1.2281E+02 8.0755E-01
-1.2198E+02 8.0761E-01
-1.2114E+02 8.0763E-01
-1.2031E+02 8.0764E-01
-1.1948E+02 8.0766E-01
-1.1864E+02 8.0765E-01
-1.1781E+02 8.0766E-01
-1.1697E+02 8.0767E-01
-1.1614E+02 8.0771E-01
-1.1531E+02 8.0771E-01
-1.1447E+02 8.0775E-01
-1.1364E+02 8.0776E-01
-1.1281E+02 8.0781E-01
-1.1197E+02 8.0777E-01
-1.1114E+02 8.0780E-01
-1.1030E+02 8.0784E-01
-1.0947E+02 8.0781E-01
-1.0864E+02 8.0787E-01
-1.0780E+02 8.0786E-01
-1.0697E+02 8.0786E-01
-1.0613E+02 8.0788E-01
-1.0530E+02 8.0794E-01
-1.0447E+02 8.0791E-01
-1.0363E+02 8.0797E-01
-1.0280E+02 8.0797E-01
-1.0196E+02 8.0797E-01
-1.0113E+02 8.0801E-01
-1.0030E+02 8.0800E-01
-9.9463E+01 8.0794E-01
-9.8629E+01 8.0805E-01
-9.7795E+01 8.0811E-01
-9.6961E+01 8.0810E-01
-9.6127E+01 8.0807E-01
-9.5293E+01 8.0811E-01
-9.4459E+01 8.0814E-01
-9.3626E+01 8.0812E-01
-9.2792E+01 8.0816E-01
-9.1958E+01 8.0815E-01
-9.1124E+01 8.0814E-01
-9.0290E+01 8.0820E-01
-8.9456E+01 8.0824E-01
-8.8622E+01 8.0825E-01
-8.7788E+01 8.0823E-01
-8.6954E+01 8.0828E-01
-8.6121E+01 8.0832E-01
-8.5287E+01 8.0826E-01
-8.4453E+01 8.0831E-01
-8.3619E+01 8.0831E-01
-8.2785E+01 8.0837E-01
-8.1951E+01 8.0838E-01
-8.1117E+01 8.0837E-01
-8.0283E+01 8.0843E-01
-7.9449E+01 8.0842E-01
-7.8616E+01 8.0837E-01
-7.7782E+01 8.0846E-01
-7.6948E+01 8.0848E-01
-7.6114E+01 8.0850E-01
-7.5280E+01 8.0849E-01
-7.4446E+01 8.0852E-01
-7.3612E+01 8.0853E-01
-7.2778E+01 8.0858E-01
-7.1944E+01 8.0861E-01
-7.1111E+01 8.0854E-01
-7.0277E+01 8.0865E-01
-6.9443E+01 8.0862E-01
-6.8609E+01 8.0864E-01
-6.7775E+01 8.0865E-01
-6.6941E+01 8.0868E-01
-6.6107E+01 8.0869E-01
-6.5273E+01 8.0871E-01
-6.4439E+01 8.0869E-01
-6.3606E+01 8.0874E-01
-6.2772E+01 8.0875E-01
-6.1938E+01 8.0880E-01
-6.1104E+01 8.0873E-01
-6.0270E+01 8.0876E-01
-5.9436E+01 8.0884E-01
-5.8602E+01 8.0877E-01
-5.7768E+01 8.0886E-01
-5.6934E+01 8.0882E-01
-5.6101E+01 8.0888E-01
-5.5267E+01 8.0891E-01
-5.4433E+01 8.0888E-01
-5.3599E+01 8.0891E-01
-5.2765E+01 8.0894E-01
-5.1931E+01 8.0892E-01
-5.1097E+01 8.0900E-01
-5.0263E+01 8.0889E-01
-4.9429E+01 8.0900E-01
-4.8596E+01 8.0902E-01
-4.7762E+01 8.0903E-01
-4.6928E+01 8.0910E-01
-4.6094E+01 8.0904E-01
-4.5260E+01 8.0908E-01
-4.4426E+01 8.0909E-01
-4.3592E+01 8.0907E-01
-4.2758E+01 8.0914E-01
-4.1924E+01 8.0912E-01
-4.1091E+01 8.0911E-01
-4.0257E+01 8.0916E-01
-3.9423E+01 8.0920E-01
-3.8589E+01 8.0920E-01
-3.7755E+01 8.0920E-01
-3.6921E+01 8.0920E-01
-3.6087E+01 8.0926E-01
-3.5253E+01 8.0931E-01
-3.4419E+01 8.0928E-01
-3.3586E+01 8.0928E-01
-3.2752E+01 8.0933E-01
-3.1918E+01 8.0931E-01
-3.1084E+01 8.0941E-01
-3.0250E+01 8.0939E-01
-2.9416E+01 8.0937E-01
-2.8582E+01 8.0938E-01
-2.7748E+01 8.0947E-01
-2.6914E+01 8.0945E-01
-2.6081E+01 8.0944E-01
-2.5247E+01 8.0947E-01
-2.4413E+01 8.0952E-01
-2.3579E+01 8.0952E-01
-2.2745E+01 8.0942E-01
-2.1911E+01 8.0938E-01
-2.1077E+01 8.0931E-01
-2.0243E+01 8.0925E-01
-1.9409E+01 8.0921E-01
-1.8576E+01 8.0926E-01
-1.7742E+01 8.0928E-01
-1.6908E+01 8.0936E-01
-1.6074E+01 8.0942E-01
-1.5240E+01 8.0952E-01
-1.4406E+01 8.0957E-01
-1.3572E+01 8.0963E-01
-1.2738E+01 8.0968E-01
-1.1904E+01 8.0970E-01
-1.1071E+01 8.0966E-01
-1.0237E+01 8.0962E-01
-9.4028E+00 8.0968E-01
-8.5689E+00 8.0972E-01
-7.7350E+00 8.0971E-01
-6.9011E+00 8.0969E-01
-6.0672E+00 8.0961E-01
-5.2333E+00 8.0964E-01
-4.3994E+00 8.0965E-01
-3.5655E+00 8.0963E-01
-2.7317E+00 8.0964E-01
-1.8978E+00 8.0965E-01
-1.0639E+00 8.0974E-01
-2.2998E-01 8.0974E-01
 6.0391E-01 8.0974E-01
 1.4378E+00 8.0973E-01
 2.2717E+00 8.0974E-01
 3.1056E+00 8.0976E-01
 3.9395E+00 8.0980E-01
 4.7734E+00 8.0986E-01
 5.6072E+00 8.0983E-01
 6.4411E+00 8.0996E-01
 7.2750E+00 8.1002E-01
 8.1089E+00 8.1005E-01
 8.9428E+00 8.1001E-01
 9.7767E+00 8.1002E-01
 1.0611E+01 8.1012E-01
 1.1444E+01 8.1012E-01
 1.2278E+01 8.1017E-01
 1.3112E+01 8.1013E-01
 1.3946E+01 8.1014E-01
 1.4780E+01 8.1010E-01
 1.5614E+01 8.1002E-01
 1.6448E+01 8.1002E-01
 1.7282E+01 8.0991E-01
 1.8116E+01 8.0992E-01
 1.8949E+01 8.0994E-01
 1.9783E+01 8.1000E-01
 2.0617E+01 8.1011E-01
 2.1451E+01 8.1022E-01
 2.2285E+01 8.1031E-01
 2.3119E+01 8.1035E-01
 2.3953E+01 8.1042E-01
 2.4787E+01 8.1047E-01
 2.5621E+01 8.1043E-01
 2.6454E+01 8.1047E-01
 2.7288E+01 8.1051E-01
 2.8122E+01 8.1053E-01
 2.8956E+01 8.1050E-01
 2.9790E+01 8.1056E-01
 3.0624E+01 8.1058E-01
 3.1458E+01 8.1054E-01
 3.2292E+01 8.1056E-01
 3.3126E+01 8.1060E-01
 3.3959E+01 8.1063E-01
 3.4793E+01 8.1068E-01
 3.5627E+01 8.1066E-01
 3.6461E+01 8.1068E-01
 3.7295E+01 8.1067E-01
 3.8129E+01 8.1068E-01
 3.8963E+01 8.1070E-01
 3.9797E+01 8.1070E-01
 4.0631E+01 8.1070E-01
 4.1464E+01 8.1075E-01
 4.2298E+01 8.1077E-01
 4.3132E+01 8.1077E-01
 4.3966E+01 8.1077E-01
 4.4800E+01 8.1076E-01
 4.5634E+01 8.1083E-01
 4.6468E+01 8.1086E-01
 4.7302E+01 8.1093E-01
 4.8136E+01 8.1090E-01
 4.8969E+01 8.1089E-01
 4.9803E+01 8.1088E-01
 5.0637E+01 8.1096E-01
 5.1471E+01 8.1097E-01
 5.2305E+01 8.1098E-01
 5.3139E+01 8.1100E-01
 5.3973E+01 8.1098E-01
 5.4807E+01 8.1099E-01
 5.5641E+01 8.1105E-01
 5.6474E+01 8.1103E-01
 5.7308E+01 8.1108E-01
 5.8142E+01 8.1102E-01
 5.8976E+01 8.1112E-01
 5.9810E+01 8.1115E-01
 6.0644E+01 8.1109E-01
 6.1478E+01 8.1114E-01
 6.2312E+01 8.1116E-01
 6.3146E+01 8.1116E-01
 6.3980E+01 8.1121E-01
 6.4813E+01 8.1119E-01
 6.5647E+01 8.1119E-01
 6.6481E+01 8.1120E-01
 6.7315E+01 8.1127E-01
 6.8149E+01 8.1126E-01
 6.8983E+01 8.1132E-01
 6.9817E+01 8.1130E-01
 7.0651E+01 8.1130E-01
 7.1484E+01 8.1133E-01
 7.2318E+01 8.1132E-01
 7.3152E+01 8.1137E-01
 7.3986E+01 8.1136E-01
 7.4820E+01 8.1138E-01
 7.5654E+01 8.1139E-01
 7.6488E+01 8.1141E-01
 7.7322E+01 8.1148E-01
 7.8156E+01 8.1146E-01
 7.8990E+01 8.1147E-01
 7.9823E+01 8.1148E-01
 8.0657E+01 8.1152E-01
 8.1491E+01 8.1153E-01
 8.2325E+01 8.1152E-01
 8.3159E+01 8.1157E-01
 8.3993E+01 8.1161E-01
 8.4827E+01 8.1158E-01
 8.5661E+01 8.1155E-01
 8.6495E+01 8.1159E-01
 8.7328E+01 8.1164E-01
 8.8162E+01 8.1167E-01
 8.8996E+01 8.1169E-01
 8.9830E+01 8.1169E-01
 9.0664E+01 8.1172E-01
 9.1498E+01 8.1173E-01
 9.2332E+01 8.1172E-01
 9.3166E+01 8.1173E-01
 9.4000E+01 8.1173E-01
 9.4833E+01 8.1178E-01
 9.5667E+01 8.1181E-01
 9.6501E+01 8.1177E-01
 9.7335E+01 8.1185E-01
 9.8169E+01 8.1184E-01
 9.9003E+01 8.1187E-01
 9.9837E+01 8.1184E-01
 1.0067E+02 8.1188E-01
 1.0150E+02 8.1191E-01
 1.0234E+02 8.1193E-01
 1.0317E+02 8.1195E-01
 1.0401E+02 8.1201E-01
 1.0484E+02 8.1194E-01
 1.0567E+02 8.1191E-01
 1.0651E+02 8.1199E-01
 1.0734E+02 8.1201E-01
 1.0818E+02 8.1205E-01
 1.0901E+02 8.1204E-01
 1.0984E+02 8.1208E-01
 1.1068E+02 8.1209E-01
 1.1151E+02 8.1211E-01
 1.1235E+02 8.1215E-01
 1.1318E+02 8.1214E-01
 1.1401E+02 8.1215E-01
 1.1485E+02 8.1216E-01
 1.1568E+02 8.1221E-01
 1.1651E+02 8.1219E-01
 1.1735E+02 8.1223E-01
 1.1818E+02 8.1225E-01
 1.1902E+02 8.1221E-01
 1.1985E+02 8.1227E-01
 1.2068E+02 8.1222E-01
 1.2152E+02 8.1230E-01
 1.2235E+02 8.1230E-01
 1.2319E+02 8.1231E-01
 1.2402E+02 8.1236E-01
 1.2485E+02 8.1236E-01
 1.2569E+02 8.1241E-01
 1.2652E+02 8.1242E-01
 1.2736E+02 8.1242E-01
 1.2819E+02 8.1237E-01
 1.2902E+02 8.1246E-01
 1.2986E+02 8.1244E-01
 1.3069E+02 8.1251E-01
 1.3152E+02 8.1239E-01
 1.3236E+02 8.1256E-01
 1.3319E+02 8.1248E-01
 1.3403E+02 8.1256E-01
 1.3486E+02 8.1250E-01
 1.3569E+02 8.1254E-01
 1.3653E+02 8.1256E-01
 1.3736E+02 8.1260E-01
 1.3820E+02 8.1254E-01
 1.3903E+02 8.1261E-01
 1.3986E+02 8.1263E-01
 1.4070E+02 8.1266E-01
 1.4153E+02 8.1271E-01
 1.4237E+02 8.1272E-01
 1.4320E+02 8.1267E-01
 1.4403E+02 8.1272E-01
 1.4487E+02 8.1273E-01
 1.4570E+02 8.1273E-01
 1.4653E+02 8.1278E-01
 1.4737E+02 8.1280E-01
 1.4820E+02 8.1281E-01
 1.4904E+02 8.1282E-01
 1.4987E+02 8.1287E-01
 1.5070E+02 8.1283E-01
 1.5154E+02 8.1286E-01
 1.5237E+02 8.1286E-01
 1.5321E+02 8.1291E-01
 1.5404E+02 8.1296E-01
 1.5487E+02 8.1294E-01
 1.5571E+02 8.1294E-01
 1.5654E+02 8.1296E-01
 1.5738E+02 8.1295E-01
 1.5821E+02 8.1300E-01
 1.5904E+02 8.1301E-01
 1.5988E+02 8.1303E-01
 1.6071E+02 8.1304E-01
 1.6154E+02 8.1299E-01
 1.6238E+02 8.1310E-01
 1.6321E+02 8.1311E-01
 1.6405E+02 8.1308E-01
 1.6488E+02 8.1313E-01
 1.6571E+02 8.1312E-01
 1.6655E+02 8.1314E-01
