-1.6617E+02 7.7359E-01
-1.6534E+02 7.7360E-01
-1.6451E+02 7.7364E-01
-1.6367E+02 7.7366E-01
-1.6284E+02 7.7364E-01
-1.6200E+02 7.7369E-01
-1.6117E+02 7.7370E-01
-1.6034E+02 7.7370E-01
-1.5950E+02 7.7373E-01
-1.5867E+02 7.7376E-01
-1.5784E+02 7.7378E-01
-1.5700E+02 7.7377E-01
-1.5617E+02 7.7378E-01
-1.5533E+02 7.7378E-01
-1.5450E+02 7.7382E-01
-1.5367E+02 7.7379E-01
-1.5283E+02 7.7385E-01
-1.5200E+02 7.7389E-01
-1.5116E+02 7.7386E-01
-1.5033E+02 7.7390E-01
-1.4950E+02 7.7393E-01
-1.4866E+02 7.7396E-01
-1.4783E+02 7.7395E-01
-1.4699E+02 7.7396E-01
-1.4616E+02 7.7397E-01
-1.4533E+02 7.7395E-01
-1.4449E+02 7.7400E-01
-1.4366E+02 7.7401E-01
-1.4283E+02 7.7404E-01
-1.4199E+02 7.7405E-01
-1.4116E+02 7.7407E-01
-1.4032E+02 7.7410E-01
-1.3949E+02 7.7415E-01
-1.3866E+02 7.7411E-01
-1.3782E+02 7.7417E-01
-1.3699E+02 7.7414E-01
-1.3615E+02 7.7421E-01
-1.3532E+02 7.7423E-01
-1.3449E+02 7.7425E-01
-1.3365E+02 7.7423E-01
-1.3282E+02 7.7422E-01
-1.3198E+02 7.7422E-01
-1.3115E+02 7.7425E-01
-1.3032E+02 7.7431E-01
-1.2948E+02 7.7429E-01
-1.2865E+02 7.7432E-01
-1.2782E+02 7.7437E-01
-1.2698E+02 7.7435E-01
-1.2615E+02 7.7440E-01
-1.2531E+02 7.7438E-01
-1.2448E+02 7.7440E-01
-1.2365E+02 7.7443E-01
-1.2281E+02 7.7452E-01
-1.2198E+02 7.7451E-01
-1.2114E+02 7.7448E-01
-1.2031E+02 7.7447E-01
-1.1948E+02 7.7451E-01
-1.1864E+02 7.7452E-01
-1.1781E+02 7.7459E-01
-1.1697E+02 7.7458E-01
-1.1614E+02 7.7456E-01
-1.1531E+02 7.7459E-01
-1.1447E+02 7.7458E-01
-1.1364E+02 7.7460E-01
-1.1281E+02 7.7463E-01
-1.1197E+02 7.7460E-01
-1.1114E+02 7.7466E-01
-1.1030E+02 7.7470E-01
-1.0947E+02 7.7471E-01
-1.0864E+02 7.7470E-01
-1.0780E+02 7.7474E-01
-1.0697E+02 7.7479E-01
-1.0613E+02 7.7479E-01
-1.0530E+02 7.7478E-01
-1.0447E+02 7.7480E-01
-1.0363E+02 7.7476E-01
-1.0280E+02 7.7484E-01
-1.0196E+02 7.7485E-01
-1.0113E+02 7.7484E-01
-1.0030E+02 7.7488E-01
-9.9463E+01 7.7490E-01
-9.8629E+01 7.7494E-01
-9.7795E+01 7.7492E-01
-9.6961E+01 7.7492E-01
-9.6127E+01 7.7496E-01
-9.5293E+01 7.7498E-01
-9.4459E+01 7.7503E-01
-9.3626E+01 7.7500E-01
-9.2792E+01 7.7505E-01
-9.1958E+01 7.7508E-01
-9.1124E+01 7.7505E-01
-9.0290E+01 7.7504E-01
-8.9456E+01 7.7508E-01
-8.8622E+01 7.7507E-01
-8.7788E+01 7.7511E-01
-8.6954E+01 7.7522E-01
-8.6121E+01 7.7514E-01
-8.5287E+01 7.7515E-01
-8.4453E+01 7.7523E-01
-8.3619E+01 7.7518E-01
-8.2785E+01 7.7522E-01
-8.1951E+01 7.7526E-01
-8.1117E+01 7.7524E-01
-8.0283E+01 7.7529E-01
-7.9449E+01 7.7534E-01
-7.8616E+01 7.7531E-01
-7.7782E+01 7.7527E-01
-7.6948E+01 7.7534E-01
-7.6114E+01 7.7533E-01
-7.5280E+01 7.7535E-01
-7.4446E+01 7.7540E-01
-7.3612E+01 7.7536E-01
-7.2778E+01 7.7540E-01
-7.1944E+01 7.7544E-01
-7.1111E+01 7.7545E-01
-7.0277E+01 7.7545E-01
-6.9443E+01 7.7544E-01
-6.8609E+01 7.7549E-01
-6.7775E+01 7.7549E-01
-6.6941E+01 7.7553E-01
-6.6107E+01 7.7554E-01
-6.5273E+01 7.7555E-01
-6.4439E+01 7.7559E-01
-6.3606E+01 7.7556E-01
-6.2772E+01 7.7562E-01
-6.1938E+01 7.7558E-01
-6.1104E+01 7.7564E-01
-6.0270E+01 7.7560E-01
-5.9436E+01 7.7569E-01
-5.8602E+01 7.7568E-01
-5.7768E+01 7.7573E-01
-5.6934E+01 7.7571E-01
-5.6101E+01 7.7571E-01
-5.5267E+01 7.7572E-01
-5.4433E+01 7.7577E-01
-5.3599E+01 7.7577E-01
-5.2765E+01 7.7580E-01
-5.1931E+01 7.7582E-01
-5.1097E+01 7.7582E-01
-5.0263E+01 7.7584E-01
-4.9429E+01 7.7589E-01
-4.8596E+01 7.7584E-01
-4.7762E+01 7.7596E-01
-4.6928E+01 7.7591E-01
-4.6094E+01 7.7595E-01
-4.5260E+01 7.7595E-01
-4.4426E+01 7.7596E-01
-4.3592E+01 7.7597E-01
-4.2758E+01 7.7598E-01
-4.1924E+01 7.7598E-01
-4.1091E+01 7.7602E-01
-4.0257E+01 7.7603E-01
-3.9423E+01 7.7607E-01
-3.8589E+01 7.7607E-01
-3.7755E+01 7.7608E-01
-3.6921E+01 7.7608E-01
-3.6087E+01 7.7617E-01
-3.5253E+01 7.7614E-01
-3.4419E+01 7.7617E-01
-3.3586E+01 7.7615E-01
-3.2752E+01 7.7619E-01
-3.1918E+01 7.7620E-01
-3.1084E+01 7.7620E-01
-3.0250E+01 7.7626E-01
-2.9416E+01 7.7628E-01
-2.8582E+01 7.7623E-01
-2.7748E+01 7.7630E-01
-2.6914E+01 7.7628E-01
-2.6081E+01 7.7637E-01
-2.5247E+01 7.7635E-01
-2.4413E+01 7.7635E-01
-2.3579E+01 7.7629E-01
-2.2745E+01 7.7620E-01
-2.1911E+01 7.7607E-01
-2.1077E+01 7.7606E-01
-2.0243E+01 7.7611E-01
-1.9409E+01 7.7620E-01
-1.8576E+01 7.7626E-01
-1.7742E+01 7.7632E-01
-1.6908E+01 7.7638E-01
-1.6074E+01 7.7649E-01
-1.5240E+01 7.7652E-01
-1.4406E+01 7.7654E-01
-1.3572E+01 7.7658E-01
-1.2738E+01 7.7654E-01
-1.1904E+01 7.7650E-01
-1.1071E+01 7.7651E-01
-1.0237E+01 7.7650E-01
-9.4028E+00 7.7644E-01
-8.5689E+00 7.7632E-01
-7.7350E+00 7.7640E-01
-6.9011E+00 7.7634E-01
-6.0672E+00 7.7641E-01
-5.2333E+00 7.7641E-01
-4.3994E+00 7.7648E-01
-3.5655E+00 7.7637E-01
-2.7317E+00 7.7647E-01
-1.8978E+00 7.7651E-01
-1.0639E+00 7.7652E-01
-2.2998E-01 7.7652E-01
 6.0391E-01 7.7656E-01
 1.4378E+00 7.7658E-01
 2.2717E+00 7.7659E-01
 3.1056E+00 7.7653E-01
 3.9395E+00 7.7662E-01
 4.7734E+00 7.7662E-01
 5.6072E+00 7.7662E-01
 6.4411E+00 7.7660E-01
 7.2750E+00 7.7668E-01
 8.1089E+00 7.7663E-01
 8.9428E+00 7.7680E-01
 9.7767E+00 7.7688E-01
 1.0611E+01 7.7692E-01
 1.1444E+01 7.7698E-01
 1.2278E+01 7.7704E-01
 1.3112E+01 7.7710E-01
 1.3946E+01 7.7709E-01
 1.4780E+01 7.7713E-01
 1.5614E+01 7.7710E-01
 1.6448E+01 7.7706E-01
 1.7282E+01 7.7704E-01
 1.8116E+01 7.7698E-01
 1.8949E+01 7.7694E-01
 1.9783E+01 7.7687E-01
 2.0617E+01 7.7690E-01
 2.1451E+01 7.7689E-01
 2.2285E+01 7.7714E-01
 2.3119E+01 7.7722E-01
 2.3953E+01 7.7727E-01
 2.4787E+01 7.7731E-01
 2.5621E+01 7.7734E-01
 2.6454E+01 7.7731E-01
 2.7288E+01 7.7735E-01
 2.8122E+01 7.7734E-01
 2.8956E+01 7.7735E-01
 2.9790E+01 7.7741E-01
 3.0624E+01 7.7742E-01
 3.1458E+01 7.7742E-01
 3.2292E+01 7.7744E-01
 3.3126E+01 7.7747E-01
 3.3959E+01 7.7751E-01
 3.4793E+01 7.7759E-01
 3.5627E+01 7.7757E-01
 3.6461E+01 7.7749E-01
 3.7295E+01 7.7751E-01
 3.8129E+01 7.7754E-01
 3.8963E+01 7.7756E-01
 3.9797E+01 7.7758E-01
 4.0631E+01 7.7763E-01
 4.1464E+01 7.7760E-01
 4.2298E+01 7.7767E-01
 4.3132E+01 7.7764E-01
 4.3966E+01 7.7770E-01
 4.4800E+01 7.7768E-01
 4.5634E+01 7.7769E-01
 4.6468E+01 7.7774E-01
 4.7302E+01 7.7774E-01
 4.8136E+01 7.7771E-01
 4.8969E+01 7.7780E-01
 4.9803E+01 7.7785E-01
 5.0637E+01 7.7779E-01
 5.1471E+01 7.7783E-01
 5.2305E+01 7.7783E-01
 5.3139E+01 7.7785E-01
 5.3973E+01 7.7790E-01
 5.4807E+01 7.7787E-01
 5.5641E+01 7.7791E-01
 5.6474E+01 7.7792E-01
 5.7308E+01 7.7794E-01
 5.8142E+01 7.7794E-01
 5.8976E+01 7.7792E-01
 5.9810E+01 7.7796E-01
 6.0644E+01 7.7802E-01
 6.1478E+01 7.7800E-01
 6.2312E+01 7.7802E-01
 6.3146E+01 7.7803E-01
 6.3980E+01 7.7806E-01
 6.4813E+01 7.7808E-01
 6.5647E+01 7.7812E-01
 6.6481E+01 7.7812E-01
 6.7315E+01 7.7810E-01
 6.8149E+01 7.7816E-01
 6.8983E+01 7.7820E-01
 6.9817E+01 7.7811E-01
 7.0651E+01 7.7819E-01
 7.1484E+01 7.7824E-01
 7.2318E+01 7.7820E-01
 7.3152E+01 7.7823E-01
 7.3986E+01 7.7825E-01
 7.4820E+01 7.7823E-01
 7.5654E+01 7.7828E-01
 7.6488E+01 7.7825E-01
 7.7322E+01 7.7830E-01
 7.8156E+01 7.7834E-01
 7.8990E+01 7.7838E-01
 7.9823E+01 7.7841E-01
 8.0657E+01 7.7834E-01
 8.1491E+01 7.7838E-01
 8.2325E+01 7.7839E-01
 8.3159E+01 7.7841E-01
 8.3993E+01 7.7846E-01
 8.4827E+01 7.7845E-01
 8.5661E+01 7.7850E-01
 8.6495E+01 7.7850E-01
 8.7328E+01 7.7851E-01
 8.8162E+01 7.7851E-01
 8.8996E+01 7.7854E-01
 8.9830E+01 7.7854E-01
 9.0664E+01 7.7856E-01
 9.1498E+01 7.7856E-01
 9.2332E+01 7.7860E-01
 9.3166E+01 7.7861E-01
 9.4000E+01 7.7860E-01
 9.4833E+01 7.7864E-01
 9.5667E+01 7.7870E-01
 9.6501E+01 7.7869E-01
 9.7335E+01 7.7872E-01
 9.8169E+01 7.7877E-01
 9.9003E+01 7.7869E-01
 9.9837E+01 7.7876E-01
 1.0067E+02 7.7878E-01
 1.0150E+02 7.7877E-01
 1.0234E+02 7.7884E-01
 1.0317E+02 7.7882E-01
 1.0401E+02 7.7884E-01
 1.0484E+02 7.7881E-01
 1.0567E+02 7.7887E-01
 1.0651E+02 7.7884E-01
 1.0734E+02 7.7890E-01
 1.0818E+02 7.7891E-01
 1.0901E+02 7.7890E-01
 1.0984E+02 7.7895E-01
 1.1068E+02 7.7897E-01
 1.1151E+02 7.7902E-01
 1.1235E+02 7.7900E-01
 1.1318E+02 7.7901E-01
 1.1401E+02 7.7900E-01
 1.1485E+02 7.7897E-01
 1.1568E+02 7.7903E-01
 1.1651E+02 7.7906E-01
 1.1735E+02 7.7908E-01
 1.1818E+02 7.7908E-01
 1.1902E+02 7.7913E-01
 1.1985E+02 7.7915E-01
 1.2068E+02 7.7912E-01
 1.2152E+02 7.7919E-01
 1.2235E+02 7.7917E-01
 1.2319E+02 7.7915E-01
 1.2402E+02 7.7921E-01
 1.2485E+02 7.7923E-01
 1.2569E+02 7.7924E-01
 1.2652E+02 7.7927E-01
 1.2736E+02 7.7930E-01
 1.2819E+02 7.7929E-01
 1.2902E+02 7.7930E-01
 1.2986E+02 7.7934E-01
 1.3069E+02 7.7934E-01
 1.3152E+02 7.7936E-01
 1.3236E+02 7.7938E-01
 1.3319E+02 7.7940E-01
 1.3403E+02 7.7941E-01
 1.3486E+02 7.7941E-01
 1.3569E+02 7.7940E-01
 1.3653E+02 7.7943E-01
 1.3736E+02 7.7948E-01
 1.3820E+02 7.7949E-01
 1.3903E+02 7.7951E-01
 1.3986E+02 7.7951E-01
 1.4070E+02 7.7949E-01
 1.4153E+02 7.7959E-01
 1.4237E+02 7.7960E-01
 1.4320E+02 7.7960E-01
 1.4403E+02 7.7960E-01
 1.4487E+02 7.7959E-01
 1.4570E+02 7.7967E-01
 1.4653E+02 7.7962E-01
 1.4737E+02 7.7967E-01
 1.4820E+02 7.7964E-01
 1.4904E+02 7.7975E-01
 1.4987E+02 7.7968E-01
 1.5070E+02 7.7970E-01
 1.5154E+02 7.7974E-01
 1.5237E+02 7.7980E-01
 1.5321E+02 7.7985E-01
 1.5404E+02 7.7979E-01
 1.5487E+02 7.7981E-01
 1.5571E+02 7.7983E-01
 1.5654E+02 7.7985E-01
 1.5738E+02 7.7986E-01
 1.5821E+02 7.7989E-01
 1.5904E+02 7.7990E-01
 1.5988E+02 7.7995E-01
 1.6071E+02 7.7994E-01
 1.6154E+02 7.7994E-01
 1.6238E+02 7.7996E-01
 1.6321E+02 7.7997E-01
 1.6405E+02 7.8000E-01
 1.6488E+02 7.8001E-01
 1.6571E+02 7.8004E-01
 1.6655E+02 7.8003E-01
