-1.6617E+02 7.8206E-01
-1.6534E+02 7.8213E-01
-1.6451E+02 7.8214E-01
-1.6367E+02 7.8212E-01
-1.6284E+02 7.8219E-01
-1.6200E+02 7.8212E-01
-1.6117E+02 7.8219E-01
-1.6034E+02 7.8219E-01
-1.5950E+02 7.8220E-01
-1.5867E+02 7.8226E-01
-1.5784E+02 7.8226E-01
-1.5700E+02 7.8228E-01
-1.5617E+02 7.8226E-01
-1.5533E+02 7.8228E-01
-1.5450E+02 7.8232E-01
-1.5367E+02 7.8232E-01
-1.5283E+02 7.8237E-01
-1.5200E+02 7.8237E-01
-1.5116E+02 7.8238E-01
-1.5033E+02 7.8239E-01
-1.4950E+02 7.8240E-01
-1.4866E+02 7.8242E-01
-1.4783E+02 7.8245E-01
-1.4699E+02 7.8247E-01
-1.4616E+02 7.8249E-01
-1.4533E+02 7.8252E-01
-1.4449E+02 7.8250E-01
-1.4366E+02 7.8249E-01
-1.4283E+02 7.8256E-01
-1.4199E+02 7.8253E-01
-1.4116E+02 7.8264E-01
-1.4032E+02 7.8261E-01
-1.3949E+02 7.8262E-01
-1.3866E+02 7.8263E-01
-1.3782E+02 7.8265E-01
-1.3699E+02 7.8265E-01
-1.3615E+02 7.8264E-01
-1.3532E+02 7.8269E-01
-1.3449E+02 7.8270E-01
-1.3365E+02 7.8271E-01
-1.3282E+02 7.8273E-01
-1.3198E+02 7.8272E-01
-1.3115E+02 7.8278E-01
-1.3032E+02 7.8282E-01
-1.2948E+02 7.8281E-01
-1.2865E+02 7.8284E-01
-1.2782E+02 7.8287E-01
-1.2698E+02 7.8291E-01
-1.2615E+02 7.8284E-01
-1.2531E+02 7.8287E-01
-1.2448E+02 7.8291E-01
-1.2365E+02 7.8295E-01
-1.2281E+02 7.8297E-01
-1.2198E+02 7.8290E-01
-1.2114E+02 7.8293E-01
-1.2031E+02 7.8299E-01
-1.1948E+02 7.8299E-01
-1.1864E+02 7.8301E-01
-1.1781E+02 7.8305E-01
-1.1697E+02 7.8307E-01
-1.1614E+02 7.8307E-01
-1.1531E+02 7.8309E-01
-1.1447E+02 7.8308E-01
-1.1364E+02 7.8310E-01
-1.1281E+02 7.8311E-01
-1.1197E+02 7.8317E-01
-1.1114E+02 7.8313E-01
-1.1030E+02 7.8321E-01
-1.0947E+02 7.8322E-01
-1.0864E+02 7.8321E-01
-1.0780E+02 7.8322E-01
-1.0697E+02 7.8327E-01
-1.0613E+02 7.8325E-01
-1.0530E+02 7.8332E-01
-1.0447E+02 7.8328E-01
-1.0363E+02 7.8329E-01
-1.0280E+02 7.8331E-01
-1.0196E+02 7.8336E-01
-1.0113E+02 7.8334E-01
-1.0030E+02 7.8338E-01
-9.9463E+01 7.8347E-01
-9.8629E+01 7.8344E-01
-9.7795E+01 7.8343E-01
-9.6961E+01 7.8341E-01
-9.6127E+01 7.8344E-01
-9.5293E+01 7.8347E-01
-9.4459E+01 7.8352E-01
-9.3626E+01 7.8349E-01
-9.2792E+01 7.8350E-01
-9.1958E+01 7.8349E-01
-9.1124E+01 7.8355E-01
-9.0290E+01 7.8359E-01
-8.9456E+01 7.8361E-01
-8.8622E+01 7.8358E-01
-8.7788E+01 7.8356E-01
-8.6954E+01 7.8372E-01
-8.6121E+01 7.8363E-01
-8.5287E+01 7.8367E-01
-8.4453E+01 7.8367E-01
-8.3619E+01 7.8371E-01
-8.2785E+01 7.8373E-01
-8.1951E+01 7.8373E-01
-8.1117E+01 7.8374E-01
-8.0283E+01 7.8382E-01
-7.9449E+01 7.8384E-01
-7.8616E+01 7.8380E-01
-7.7782E+01 7.8383E-01
-7.6948E+01 7.8383E-01
-7.6114E+01 7.8384E-01
-7.5280E+01 7.8387E-01
-7.4446E+01 7.8387E-01
-7.3612E+01 7.8388E-01
-7.2778E+01 7.8388E-01
-7.1944E+01 7.8392E-01
-7.1111E+01 7.8396E-01
-7.0277E+01 7.8395E-01
-6.9443E+01 7.8394E-01
-6.8609E+01 7.8395E-01
-6.7775E+01 7.8398E-01
-6.6941E+01 7.8402E-01
-6.6107E+01 7.8399E-01
-6.5273E+01 7.8406E-01
-6.4439E+01 7.8406E-01
-6.3606E+01 7.8406E-01
-6.2772E+01 7.8412E-01
-6.1938E+01 7.8410E-01
-6.1104E+01 7.8410E-01
-6.0270E+01 7.8421E-01
-5.9436E+01 7.8416E-01
-5.8602E+01 7.8415E-01
-5.7768E+01 7.8422E-01
-5.6934E+01 7.8423E-01
-5.6101E+01 7.8427E-01
-5.5267E+01 7.8426E-01
-5.4433E+01 7.8427E-01
-5.3599E+01 7.8429E-01
-5.2765E+01 7.8427E-01
-5.1931E+01 7.8432E-01
-5.1097E+01 7.8430E-01
-5.0263E+01 7.8433E-01
-4.9429E+01 7.8440E-01
-4.8596E+01 7.8441E-01
-4.7762E+01 7.8436E-01
-4.6928E+01 7.8438E-01
-4.6094E+01 7.8440E-01
-4.5260E+01 7.8439E-01
-4.4426E+01 7.8449E-01
-4.3592E+01 7.8447E-01
-4.2758E+01 7.8446E-01
-4.1924E+01 7.8450E-01
-4.1091E+01 7.8451E-01
-4.0257E+01 7.8451E-01
-3.9423E+01 7.8454E-01
-3.8589E+01 7.8452E-01
-3.7755E+01 7.8455E-01
-3.6921E+01 7.8456E-01
-3.6087E+01 7.8470E-01
-3.5253E+01 7.8465E-01
-3.4419E+01 7.8468E-01
-3.3586E+01 7.8468E-01
-3.2752E+01 7.8471E-01
-3.1918E+01 7.8472E-01
-3.1084E+01 7.8476E-01
-3.0250E+01 7.8474E-01
-2.9416E+01 7.8470E-01
-2.8582E+01 7.8480E-01
-2.7748E+01 7.8477E-01
-2.6914E+01 7.8478E-01
-2.6081E+01 7.8481E-01
-2.5247E+01 7.8484E-01
-2.4413E+01 7.8485E-01
-2.3579E+01 7.8484E-01
-2.2745E+01 7.8472E-01
-2.1911E+01 7.8456E-01
-2.1077E+01 7.8455E-01
-2.0243E+01 7.8454E-01
-1.9409E+01 7.8457E-01
-1.8576E+01 7.8470E-01
-1.7742E+01 7.8478E-01
-1.6908E+01 7.8490E-01
-1.6074E+01 7.8496E-01
-1.5240E+01 7.8495E-01
-1.4406E+01 7.8501E-01
-1.3572E+01 7.8508E-01
-1.2738E+01 7.8508E-01
-1.1904E+01 7.8505E-01
-1.1071E+01 7.8504E-01
-1.0237E+01 7.8501E-01
-9.4028E+00 7.8498E-01
-8.5689E+00 7.8492E-01
-7.7350E+00 7.8489E-01
-6.9011E+00 7.8477E-01
-6.0672E+00 7.8483E-01
-5.2333E+00 7.8486E-01
-4.3994E+00 7.8500E-01
-3.5655E+00 7.8488E-01
-2.7317E+00 7.8491E-01
-1.8978E+00 7.8494E-01
-1.0639E+00 7.8496E-01
-2.2998E-01 7.8497E-01
 6.0391E-01 7.8500E-01
 1.4378E+00 7.8500E-01
 2.2717E+00 7.8500E-01
 3.1056E+00 7.8500E-01
 3.9395E+00 7.8515E-01
 4.7734E+00 7.8504E-01
 5.6072E+00 7.8506E-01
 6.4411E+00 7.8503E-01
 7.2750E+00 7.8518E-01
 8.1089E+00 7.8524E-01
 8.9428E+00 7.8533E-01
 9.7767E+00 7.8536E-01
 1.0611E+01 7.8544E-01
 1.1444E+01 7.8551E-01
 1.2278E+01 7.8553E-01
 1.3112E+01 7.8562E-01
 1.3946E+01 7.8559E-01
 1.4780E+01 7.8557E-01
 1.5614E+01 7.8558E-01
 1.6448E+01 7.8551E-01
 1.7282E+01 7.8542E-01
 1.8116E+01 7.8541E-01
 1.8949E+01 7.8532E-01
 1.9783E+01 7.8529E-01
 2.0617E+01 7.8534E-01
 2.1451E+01 7.8550E-01
 2.2285E+01 7.8562E-01
 2.3119E+01 7.8576E-01
 2.3953E+01 7.8576E-01
 2.4787E+01 7.8580E-01
 2.5621E+01 7.8581E-01
 2.6454E+01 7.8583E-01
 2.7288E+01 7.8585E-01
 2.8122E+01 7.8587E-01
 2.8956E+01 7.8584E-01
 2.9790E+01 7.8585E-01
 3.0624E+01 7.8589E-01
 3.1458E+01 7.8593E-01
 3.2292E+01 7.8595E-01
 3.3126E+01 7.8598E-01
 3.3959E+01 7.8600E-01
 3.4793E+01 7.8598E-01
 3.5627E+01 7.8611E-01
 3.6461E+01 7.8601E-01
 3.7295E+01 7.8597E-01
 3.8129E+01 7.8604E-01
 3.8963E+01 7.8605E-01
 3.9797E+01 7.8609E-01
 4.0631E+01 7.8608E-01
 4.1464E+01 7.8613E-01
 4.2298E+01 7.8611E-01
 4.3132E+01 7.8613E-01
 4.3966E+01 7.8617E-01
 4.4800E+01 7.8614E-01
 4.5634E+01 7.8615E-01
 4.6468E+01 7.8619E-01
 4.7302E+01 7.8620E-01
 4.8136E+01 7.8623E-01
 4.8969E+01 7.8632E-01
 4.9803E+01 7.8628E-01
 5.0637E+01 7.8632E-01
 5.1471E+01 7.8630E-01
 5.2305E+01 7.8633E-01
 5.3139E+01 7.8635E-01
 5.3973E+01 7.8639E-01
 5.4807E+01 7.8641E-01
 5.5641E+01 7.8639E-01
 5.6474E+01 7.8641E-01
 5.7308E+01 7.8644E-01
 5.8142E+01 7.8646E-01
 5.8976E+01 7.8645E-01
 5.9810E+01 7.8647E-01
 6.0644E+01 7.8652E-01
 6.1478E+01 7.8651E-01
 6.2312E+01 7.8649E-01
 6.3146E+01 7.8652E-01
 6.3980E+01 7.8654E-01
 6.4813E+01 7.8659E-01
 6.5647E+01 7.8656E-01
 6.6481E+01 7.8663E-01
 6.7315E+01 7.8663E-01
 6.8149E+01 7.8659E-01
 6.8983E+01 7.8662E-01
 6.9817E+01 7.8662E-01
 7.0651E+01 7.8666E-01
 7.1484E+01 7.8674E-01
 7.2318E+01 7.8674E-01
 7.3152E+01 7.8675E-01
 7.3986E+01 7.8669E-01
 7.4820E+01 7.8676E-01
 7.5654E+01 7.8675E-01
 7.6488E+01 7.8682E-01
 7.7322E+01 7.8681E-01
 7.8156E+01 7.8689E-01
 7.8990E+01 7.8682E-01
 7.9823E+01 7.8687E-01
 8.0657E+01 7.8686E-01
 8.1491E+01 7.8688E-01
 8.2325E+01 7.8688E-01
 8.3159E+01 7.8691E-01
 8.3993E+01 7.8687E-01
 8.4827E+01 7.8689E-01
 8.5661E+01 7.8703E-01
 8.6495E+01 7.8696E-01
 8.7328E+01 7.8701E-01
 8.8162E+01 7.8701E-01
 8.8996E+01 7.8700E-01
 8.9830E+01 7.8705E-01
 9.0664E+01 7.8708E-01
 9.1498E+01 7.8708E-01
 9.2332E+01 7.8715E-01
 9.3166E+01 7.8713E-01
 9.4000E+01 7.8712E-01
 9.4833E+01 7.8714E-01
 9.5667E+01 7.8713E-01
 9.6501E+01 7.8718E-01
 9.7335E+01 7.8720E-01
 9.8169E+01 7.8720E-01
 9.9003E+01 7.8722E-01
 9.9837E+01 7.8722E-01
 1.0067E+02 7.8726E-01
 1.0150E+02 7.8728E-01
 1.0234E+02 7.8726E-01
 1.0317E+02 7.8732E-01
 1.0401E+02 7.8732E-01
 1.0484E+02 7.8733E-01
 1.0567E+02 7.8736E-01
 1.0651E+02 7.8736E-01
 1.0734E+02 7.8739E-01
 1.0818E+02 7.8740E-01
 1.0901E+02 7.8743E-01
 1.0984E+02 7.8742E-01
 1.1068E+02 7.8743E-01
 1.1151E+02 7.8747E-01
 1.1235E+02 7.8749E-01
 1.1318E+02 7.8750E-01
 1.1401E+02 7.8749E-01
 1.1485E+02 7.8750E-01
 1.1568E+02 7.8759E-01
 1.1651E+02 7.8761E-01
 1.1735E+02 7.8755E-01
 1.1818E+02 7.8759E-01
 1.1902E+02 7.8759E-01
 1.1985E+02 7.8763E-01
 1.2068E+02 7.8765E-01
 1.2152E+02 7.8769E-01
 1.2235E+02 7.8767E-01
 1.2319E+02 7.8769E-01
 1.2402E+02 7.8769E-01
 1.2485E+02 7.8775E-01
 1.2569E+02 7.8777E-01
 1.2652E+02 7.8775E-01
 1.2736E+02 7.8779E-01
 1.2819E+02 7.8782E-01
 1.2902E+02 7.8778E-01
 1.2986E+02 7.8779E-01
 1.3069E+02 7.8783E-01
 1.3152E+02 7.8795E-01
 1.3236E+02 7.8791E-01
 1.3319E+02 7.8788E-01
 1.3403E+02 7.8791E-01
 1.3486E+02 7.8790E-01
 1.3569E+02 7.8799E-01
 1.3653E+02 7.8794E-01
 1.3736E+02 7.8798E-01
 1.3820E+02 7.8799E-01
 1.3903E+02 7.8798E-01
 1.3986E+02 7.8804E-01
 1.4070E+02 7.8796E-01
 1.4153E+02 7.8812E-01
 1.4237E+02 7.8804E-01
 1.4320E+02 7.8807E-01
 1.4403E+02 7.8811E-01
 1.4487E+02 7.8806E-01
 1.4570E+02 7.8811E-01
 1.4653E+02 7.8813E-01
 1.4737E+02 7.8814E-01
 1.4820E+02 7.8817E-01
 1.4904E+02 7.8809E-01
 1.4987E+02 7.8820E-01
 1.5070E+02 7.8823E-01
 1.5154E+02 7.8822E-01
 1.5237E+02 7.8824E-01
 1.5321E+02 7.8826E-01
 1.5404E+02 7.8825E-01
 1.5487E+02 7.8829E-01
 1.5571E+02 7.8831E-01
 1.5654E+02 7.8831E-01
 1.5738E+02 7.8836E-01
 1.5821E+02 7.8837E-01
 1.5904E+02 7.8842E-01
 1.5988E+02 7.8845E-01
 1.6071E+02 7.8842E-01
 1.6154E+02 7.8840E-01
 1.6238E+02 7.8844E-01
 1.6321E+02 7.8846E-01
 1.6405E+02 7.8848E-01
 1.6488E+02 7.8851E-01
 1.6571E+02 7.8854E-01
 1.6655E+02 7.8852E-01
