-1.6617E+02 7.9046E-01
-1.6534E+02 7.9041E-01
-1.6451E+02 7.9048E-01
-1.6367E+02 7.9049E-01
-1.6284E+02 7.9051E-01
-1.6200E+02 7.9057E-01
-1.6117E+02 7.9051E-01
-1.6034E+02 7.9055E-01
-1.5950E+02 7.9057E-01
-1.5867E+02 7.9064E-01
-1.5784E+02 7.9058E-01
-1.5700E+02 7.9057E-01
-1.5617E+02 7.9066E-01
-1.5533E+02 7.9064E-01
-1.5450E+02 7.9065E-01
-1.5367E+02 7.9069E-01
-1.5283E+02 7.9071E-01
-1.5200E+02 7.9073E-01
-1.5116E+02 7.9075E-01
-1.5033E+02 7.9077E-01
-1.4950E+02 7.9082E-01
-1.4866E+02 7.9080E-01
-1.4783E+02 7.9080E-01
-1.4699E+02 7.9080E-01
-1.4616E+02 7.9084E-01
-1.4533E+02 7.9090E-01
-1.4449E+02 7.9088E-01
-1.4366E+02 7.9089E-01
-1.4283E+02 7.9090E-01
-1.4199E+02 7.9089E-01
-1.4116E+02 7.9092E-01
-1.4032E+02 7.9095E-01
-1.3949E+02 7.9096E-01
-1.3866E+02 7.9099E-01
-1.3782E+02 7.9100E-01
-1.3699E+02 7.9101E-01
-1.3615E+02 7.9101E-01
-1.3532E+02 7.9099E-01
-1.3449E+02 7.9106E-01
-1.3365E+02 7.9110E-01
-1.3282E+02 7.9111E-01
-1.3198E+02 7.9113E-01
-1.3115E+02 7.9110E-01
-1.3032E+02 7.9114E-01
-1.2948E+02 7.9114E-01
-1.2865E+02 7.9118E-01
-1.2782E+02 7.9121E-01
-1.2698E+02 7.9123E-01
-1.2615E+02 7.9122E-01
-1.2531E+02 7.9121E-01
-1.2448E+02 7.9125E-01
-1.2365E+02 7.9126E-01
-1.2281E+02 7.9126E-01
-1.2198E+02 7.9129E-01
-1.2114E+02 7.9134E-01
-1.2031E+02 7.9135E-01
-1.1948E+02 7.9135E-01
-1.1864E+02 7.9136E-01
-1.1781E+02 7.9140E-01
-1.1697E+02 7.9140E-01
-1.1614E+02 7.9141E-01
-1.1531E+02 7.9142E-01
-1.1447E+02 7.9147E-01
-1.1364E+02 7.9147E-01
-1.1281E+02 7.9150E-01
-1.1197E+02 7.9148E-01
-1.1114E+02 7.9158E-01
-1.1030E+02 7.9152E-01
-1.0947E+02 7.9158E-01
-1.0864E+02 7.9157E-01
-1.0780E+02 7.9156E-01
-1.0697E+02 7.9159E-01
-1.0613E+02 7.9158E-01
-1.0530E+02 7.9162E-01
-1.0447E+02 7.9165E-01
-1.0363E+02 7.9166E-01
-1.0280E+02 7.9171E-01
-1.0196E+02 7.9164E-01
-1.0113E+02 7.9169E-01
-1.0030E+02 7.9177E-01
-9.9463E+01 7.9176E-01
-9.8629E+01 7.9177E-01
-9.7795E+01 7.9176E-01
-9.6961E+01 7.9182E-01
-9.6127E+01 7.9180E-01
-9.5293E+01 7.9180E-01
-9.4459E+01 7.9180E-01
-9.3626E+01 7.9185E-01
-9.2792E+01 7.9188E-01
-9.1958E+01 7.9188E-01
-9.1124E+01 7.9192E-01
-9.0290E+01 7.9192E-01
-8.9456E+01 7.9193E-01
-8.8622E+01 7.9194E-01
-8.7788E+01 7.9193E-01
-8.6954E+01 7.9204E-01
-8.6121E+01 7.9199E-01
-8.5287E+01 7.9203E-01
-8.4453E+01 7.9203E-01
-8.3619E+01 7.9204E-01
-8.2785E+01 7.9208E-01
-8.1951E+01 7.9210E-01
-8.1117E+01 7.9208E-01
-8.0283E+01 7.9214E-01
-7.9449E+01 7.9219E-01
-7.8616E+01 7.9215E-01
-7.7782E+01 7.9215E-01
-7.6948E+01 7.9218E-01
-7.6114E+01 7.9220E-01
-7.5280E+01 7.9221E-01
-7.4446E+01 7.9225E-01
-7.3612E+01 7.9229E-01
-7.2778E+01 7.9225E-01
-7.1944E+01 7.9231E-01
-7.1111E+01 7.9231E-01
-7.0277E+01 7.9234E-01
-6.9443E+01 7.9226E-01
-6.8609E+01 7.9235E-01
-6.7775E+01 7.9236E-01
-6.6941E+01 7.9236E-01
-6.6107E+01 7.9234E-01
-6.5273E+01 7.9238E-01
-6.4439E+01 7.9241E-01
-6.3606E+01 7.9243E-01
-6.2772E+01 7.9246E-01
-6.1938E+01 7.9246E-01
-6.1104E+01 7.9247E-01
-6.0270E+01 7.9248E-01
-5.9436E+01 7.9251E-01
-5.8602E+01 7.9253E-01
-5.7768E+01 7.9253E-01
-5.6934E+01 7.9258E-01
-5.6101E+01 7.9260E-01
-5.5267E+01 7.9261E-01
-5.4433E+01 7.9261E-01
-5.3599E+01 7.9267E-01
-5.2765E+01 7.9265E-01
-5.1931E+01 7.9269E-01
-5.1097E+01 7.9268E-01
-5.0263E+01 7.9268E-01
-4.9429E+01 7.9269E-01
-4.8596E+01 7.9275E-01
-4.7762E+01 7.9271E-01
-4.6928E+01 7.9277E-01
-4.6094E+01 7.9276E-01
-4.5260E+01 7.9279E-01
-4.4426E+01 7.9283E-01
-4.3592E+01 7.9282E-01
-4.2758E+01 7.9280E-01
-4.1924E+01 7.9287E-01
-4.1091E+01 7.9289E-01
-4.0257E+01 7.9289E-01
-3.9423E+01 7.9290E-01
-3.8589E+01 7.9295E-01
-3.7755E+01 7.9287E-01
-3.6921E+01 7.9292E-01
-3.6087E+01 7.9304E-01
-3.5253E+01 7.9297E-01
-3.4419E+01 7.9300E-01
-3.3586E+01 7.9301E-01
-3.2752E+01 7.9306E-01
-3.1918E+01 7.9308E-01
-3.1084E+01 7.9304E-01
-3.0250E+01 7.9306E-01
-2.9416E+01 7.9310E-01
-2.8582E+01 7.9310E-01
-2.7748E+01 7.9314E-01
-2.6914E+01 7.9314E-01
-2.6081E+01 7.9318E-01
-2.5247E+01 7.9326E-01
-2.4413E+01 7.9319E-01
-2.3579E+01 7.9316E-01
-2.2745E+01 7.9310E-01
-2.1911E+01 7.9300E-01
-2.1077E+01 7.9288E-01
-2.0243E+01 7.9289E-01
-1.9409E+01 7.9293E-01
-1.8576E+01 7.9299E-01
-1.7742E+01 7.9306E-01
-1.6908E+01 7.9316E-01
-1.6074E+01 7.9325E-01
-1.5240E+01 7.9332E-01
-1.4406E+01 7.9334E-01
-1.3572E+01 7.9339E-01
-1.2738E+01 7.9343E-01
-1.1904E+01 7.9347E-01
-1.1071E+01 7.9339E-01
-1.0237E+01 7.9335E-01
-9.4028E+00 7.9338E-01
-8.5689E+00 7.9331E-01
-7.7350E+00 7.9334E-01
-6.9011E+00 7.9328E-01
-6.0672E+00 7.9323E-01
-5.2333E+00 7.9319E-01
-4.3994E+00 7.9336E-01
-3.5655E+00 7.9323E-01
-2.7317E+00 7.9323E-01
-1.8978E+00 7.9324E-01
-1.0639E+00 7.9327E-01
-2.2998E-01 7.9333E-01
 6.0391E-01 7.9333E-01
 1.4378E+00 7.9331E-01
 2.2717E+00 7.9333E-01
 3.1056E+00 7.9336E-01
 3.9395E+00 7.9352E-01
 4.7734E+00 7.9339E-01
 5.6072E+00 7.9348E-01
 6.4411E+00 7.9355E-01
 7.2750E+00 7.9360E-01
 8.1089E+00 7.9364E-01
 8.9428E+00 7.9376E-01
 9.7767E+00 7.9375E-01
 1.0611E+01 7.9383E-01
 1.1444E+01 7.9390E-01
 1.2278E+01 7.9392E-01
 1.3112E+01 7.9393E-01
 1.3946E+01 7.9390E-01
 1.4780E+01 7.9392E-01
 1.5614E+01 7.9386E-01
 1.6448E+01 7.9378E-01
 1.7282E+01 7.9372E-01
 1.8116E+01 7.9368E-01
 1.8949E+01 7.9365E-01
 1.9783E+01 7.9367E-01
 2.0617E+01 7.9374E-01
 2.1451E+01 7.9388E-01
 2.2285E+01 7.9401E-01
 2.3119E+01 7.9408E-01
 2.3953E+01 7.9412E-01
 2.4787E+01 7.9418E-01
 2.5621E+01 7.9418E-01
 2.6454E+01 7.9413E-01
 2.7288E+01 7.9419E-01
 2.8122E+01 7.9422E-01
 2.8956E+01 7.9421E-01
 2.9790E+01 7.9422E-01
 3.0624E+01 7.9429E-01
 3.1458E+01 7.9428E-01
 3.2292E+01 7.9431E-01
 3.3126E+01 7.9431E-01
 3.3959E+01 7.9431E-01
 3.4793E+01 7.9436E-01
 3.5627E+01 7.9438E-01
 3.6461E+01 7.9437E-01
 3.7295E+01 7.9437E-01
 3.8129E+01 7.9443E-01
 3.8963E+01 7.9440E-01
 3.9797E+01 7.9446E-01
 4.0631E+01 7.9442E-01
 4.1464E+01 7.9446E-01
 4.2298E+01 7.9446E-01
 4.3132E+01 7.9449E-01
 4.3966E+01 7.9455E-01
 4.4800E+01 7.9453E-01
 4.5634E+01 7.9457E-01
 4.6468E+01 7.9457E-01
 4.7302E+01 7.9454E-01
 4.8136E+01 7.9460E-01
 4.8969E+01 7.9467E-01
 4.9803E+01 7.9462E-01
 5.0637E+01 7.9466E-01
 5.1471E+01 7.9469E-01
 5.2305E+01 7.9470E-01
 5.3139E+01 7.9469E-01
 5.3973E+01 7.9473E-01
 5.4807E+01 7.9472E-01
 5.5641E+01 7.9478E-01
 5.6474E+01 7.9477E-01
 5.7308E+01 7.9476E-01
 5.8142E+01 7.9477E-01
 5.8976E+01 7.9475E-01
 5.9810E+01 7.9483E-01
 6.0644E+01 7.9488E-01
 6.1478E+01 7.9489E-01
 6.2312E+01 7.9486E-01
 6.3146E+01 7.9488E-01
 6.3980E+01 7.9488E-01
 6.4813E+01 7.9490E-01
 6.5647E+01 7.9494E-01
 6.6481E+01 7.9496E-01
 6.7315E+01 7.9497E-01
 6.8149E+01 7.9500E-01
 6.8983E+01 7.9498E-01
 6.9817E+01 7.9502E-01
 7.0651E+01 7.9500E-01
 7.1484E+01 7.9509E-01
 7.2318E+01 7.9506E-01
 7.3152E+01 7.9504E-01
 7.3986E+01 7.9510E-01
 7.4820E+01 7.9514E-01
 7.5654E+01 7.9511E-01
 7.6488E+01 7.9515E-01
 7.7322E+01 7.9520E-01
 7.8156E+01 7.9514E-01
 7.8990E+01 7.9519E-01
 7.9823E+01 7.9520E-01
 8.0657E+01 7.9523E-01
 8.1491E+01 7.9523E-01
 8.2325E+01 7.9524E-01
 8.3159E+01 7.9523E-01
 8.3993E+01 7.9528E-01
 8.4827E+01 7.9530E-01
 8.5661E+01 7.9530E-01
 8.6495E+01 7.9530E-01
 8.7328E+01 7.9537E-01
 8.8162E+01 7.9537E-01
 8.8996E+01 7.9539E-01
 8.9830E+01 7.9538E-01
 9.0664E+01 7.9543E-01
 9.1498E+01 7.9542E-01
 9.2332E+01 7.9538E-01
 9.3166E+01 7.9543E-01
 9.4000E+01 7.9546E-01
 9.4833E+01 7.9550E-01
 9.5667E+01 7.9550E-01
 9.6501E+01 7.9554E-01
 9.7335E+01 7.9550E-01
 9.8169E+01 7.9561E-01
 9.9003E+01 7.9557E-01
 9.9837E+01 7.9558E-01
 1.0067E+02 7.9561E-01
 1.0150E+02 7.9563E-01
 1.0234E+02 7.9565E-01
 1.0317E+02 7.9567E-01
 1.0401E+02 7.9567E-01
 1.0484E+02 7.9573E-01
 1.0567E+02 7.9570E-01
 1.0651E+02 7.9570E-01
 1.0734E+02 7.9575E-01
 1.0818E+02 7.9575E-01
 1.0901E+02 7.9574E-01
 1.0984E+02 7.9580E-01
 1.1068E+02 7.9584E-01
 1.1151E+02 7.9579E-01
 1.1235E+02 7.9588E-01
 1.1318E+02 7.9584E-01
 1.1401E+02 7.9585E-01
 1.1485E+02 7.9588E-01
 1.1568E+02 7.9582E-01
 1.1651E+02 7.9588E-01
 1.1735E+02 7.9593E-01
 1.1818E+02 7.9595E-01
 1.1902E+02 7.9598E-01
 1.1985E+02 7.9600E-01
 1.2068E+02 7.9599E-01
 1.2152E+02 7.9601E-01
 1.2235E+02 7.9602E-01
 1.2319E+02 7.9603E-01
 1.2402E+02 7.9607E-01
 1.2485E+02 7.9606E-01
 1.2569E+02 7.9611E-01
 1.2652E+02 7.9608E-01
 1.2736E+02 7.9612E-01
 1.2819E+02 7.9611E-01
 1.2902E+02 7.9616E-01
 1.2986E+02 7.9617E-01
 1.3069E+02 7.9621E-01
 1.3152E+02 7.9617E-01
 1.3236E+02 7.9623E-01
 1.3319E+02 7.9626E-01
 1.3403E+02 7.9625E-01
 1.3486E+02 7.9627E-01
 1.3569E+02 7.9628E-01
 1.3653E+02 7.9632E-01
 1.3736E+02 7.9633E-01
 1.3820E+02 7.9631E-01
 1.3903E+02 7.9637E-01
 1.3986E+02 7.9632E-01
 1.4070E+02 7.9641E-01
 1.4153E+02 7.9643E-01
 1.4237E+02 7.9638E-01
 1.4320E+02 7.9640E-01
 1.4403E+02 7.9642E-01
 1.4487E+02 7.9644E-01
 1.4570E+02 7.9647E-01
 1.4653E+02 7.9647E-01
 1.4737E+02 7.9650E-01
 1.4820E+02 7.9652E-01
 1.4904E+02 7.9655E-01
 1.4987E+02 7.9655E-01
 1.5070E+02 7.9658E-01
 1.5154E+02 7.9657E-01
 1.5237E+02 7.9658E-01
 1.5321E+02 7.9654E-01
 1.5404E+02 7.9669E-01
 1.5487E+02 7.9666E-01
 1.5571E+02 7.9664E-01
 1.5654E+02 7.9670E-01
 1.5738E+02 7.9675E-01
 1.5821E+02 7.9668E-01
 1.5904E+02 7.9671E-01
 1.5988E+02 7.9675E-01
 1.6071E+02 7.9675E-01
 1.6154E+02 7.9676E-01
 1.6238E+02 7.9681E-01
 1.6321E+02 7.9681E-01
 1.6405E+02 7.9682E-01
 1.6488E+02 7.9685E-01
 1.6571E+02 7.9689E-01
 1.6655E+02 7.9689E-01
