-1.6617E+02 7.9457E-01
-1.6534E+02 7.9454E-01
-1.6451E+02 7.9461E-01
-1.6367E+02 7.9459E-01
-1.6284E+02 7.9464E-01
-1.6200E+02 7.9470E-01
-1.6117E+02 7.9469E-01
-1.6034E+02 7.9469E-01
-1.5950E+02 7.9469E-01
-1.5867E+02 7.9477E-01
-1.5784E+02 7.9469E-01
-1.5700E+02 7.9475E-01
-1.5617E+02 7.9476E-01
-1.5533E+02 7.9477E-01
-1.5450E+02 7.9476E-01
-1.5367E+02 7.9481E-01
-1.5283E+02 7.9487E-01
-1.5200E+02 7.9483E-01
-1.5116E+02 7.9486E-01
-1.5033E+02 7.9486E-01
-1.4950E+02 7.9499E-01
-1.4866E+02 7.9486E-01
-1.4783E+02 7.9491E-01
-1.4699E+02 7.9493E-01
-1.4616E+02 7.9498E-01
-1.4533E+02 7.9501E-01
-1.4449E+02 7.9500E-01
-1.4366E+02 7.9496E-01
-1.4283E+02 7.9500E-01
-1.4199E+02 7.9507E-01
-1.4116E+02 7.9507E-01
-1.4032E+02 7.9508E-01
-1.3949E+02 7.9507E-01
-1.3866E+02 7.9510E-01
-1.3782E+02 7.9512E-01
-1.3699E+02 7.9511E-01
-1.3615E+02 7.9511E-01
-1.3532E+02 7.9519E-01
-1.3449E+02 7.9518E-01
-1.3365E+02 7.9521E-01
-1.3282E+02 7.9525E-01
-1.3198E+02 7.9523E-01
-1.3115E+02 7.9526E-01
-1.3032E+02 7.9523E-01
-1.2948E+02 7.9529E-01
-1.2865E+02 7.9528E-01
-1.2782E+02 7.9532E-01
-1.2698E+02 7.9534E-01
-1.2615E+02 7.9532E-01
-1.2531E+02 7.9534E-01
-1.2448E+02 7.9538E-01
-1.2365E+02 7.9540E-01
-1.2281E+02 7.9540E-01
-1.2198E+02 7.9543E-01
-1.2114E+02 7.9544E-01
-1.2031E+02 7.9544E-01
-1.1948E+02 7.9551E-01
-1.1864E+02 7.9549E-01
-1.1781E+02 7.9547E-01
-1.1697E+02 7.9547E-01
-1.1614E+02 7.9560E-01
-1.1531E+02 7.9554E-01
-1.1447E+02 7.9554E-01
-1.1364E+02 7.9563E-01
-1.1281E+02 7.9559E-01
-1.1197E+02 7.9561E-01
-1.1114E+02 7.9573E-01
-1.1030E+02 7.9562E-01
-1.0947E+02 7.9567E-01
-1.0864E+02 7.9570E-01
-1.0780E+02 7.9571E-01
-1.0697E+02 7.9569E-01
-1.0613E+02 7.9570E-01
-1.0530E+02 7.9571E-01
-1.0447E+02 7.9573E-01
-1.0363E+02 7.9581E-01
-1.0280E+02 7.9580E-01
-1.0196E+02 7.9580E-01
-1.0113E+02 7.9580E-01
-1.0030E+02 7.9584E-01
-9.9463E+01 7.9582E-01
-9.8629E+01 7.9585E-01
-9.7795E+01 7.9592E-01
-9.6961E+01 7.9588E-01
-9.6127E+01 7.9595E-01
-9.5293E+01 7.9593E-01
-9.4459E+01 7.9595E-01
-9.3626E+01 7.9597E-01
-9.2792E+01 7.9595E-01
-9.1958E+01 7.9599E-01
-9.1124E+01 7.9598E-01
-9.0290E+01 7.9602E-01
-8.9456E+01 7.9604E-01
-8.8622E+01 7.9606E-01
-8.7788E+01 7.9605E-01
-8.6954E+01 7.9612E-01
-8.6121E+01 7.9606E-01
-8.5287E+01 7.9614E-01
-8.4453E+01 7.9614E-01
-8.3619E+01 7.9614E-01
-8.2785E+01 7.9619E-01
-8.1951E+01 7.9623E-01
-8.1117E+01 7.9619E-01
-8.0283E+01 7.9626E-01
-7.9449E+01 7.9627E-01
-7.8616E+01 7.9624E-01
-7.7782E+01 7.9626E-01
-7.6948E+01 7.9627E-01
-7.6114E+01 7.9634E-01
-7.5280E+01 7.9632E-01
-7.4446E+01 7.9635E-01
-7.3612E+01 7.9637E-01
-7.2778E+01 7.9638E-01
-7.1944E+01 7.9642E-01
-7.1111E+01 7.9639E-01
-7.0277E+01 7.9648E-01
-6.9443E+01 7.9644E-01
-6.8609E+01 7.9647E-01
-6.7775E+01 7.9647E-01
-6.6941E+01 7.9649E-01
-6.6107E+01 7.9650E-01
-6.5273E+01 7.9653E-01
-6.4439E+01 7.9652E-01
-6.3606E+01 7.9658E-01
-6.2772E+01 7.9658E-01
-6.1938E+01 7.9658E-01
-6.1104E+01 7.9658E-01
-6.0270E+01 7.9663E-01
-5.9436E+01 7.9662E-01
-5.8602E+01 7.9670E-01
-5.7768E+01 7.9669E-01
-5.6934E+01 7.9665E-01
-5.6101E+01 7.9667E-01
-5.5267E+01 7.9675E-01
-5.4433E+01 7.9676E-01
-5.3599E+01 7.9677E-01
-5.2765E+01 7.9677E-01
-5.1931E+01 7.9681E-01
-5.1097E+01 7.9682E-01
-5.0263E+01 7.9679E-01
-4.9429E+01 7.9678E-01
-4.8596E+01 7.9690E-01
-4.7762E+01 7.9687E-01
-4.6928E+01 7.9690E-01
-4.6094E+01 7.9688E-01
-4.5260E+01 7.9691E-01
-4.4426E+01 7.9688E-01
-4.3592E+01 7.9697E-01
-4.2758E+01 7.9694E-01
-4.1924E+01 7.9699E-01
-4.1091E+01 7.9699E-01
-4.0257E+01 7.9703E-01
-3.9423E+01 7.9702E-01
-3.8589E+01 7.9705E-01
-3.7755E+01 7.9703E-01
-3.6921E+01 7.9703E-01
-3.6087E+01 7.9714E-01
-3.5253E+01 7.9710E-01
-3.4419E+01 7.9709E-01
-3.3586E+01 7.9714E-01
-3.2752E+01 7.9717E-01
-3.1918E+01 7.9714E-01
-3.1084E+01 7.9717E-01
-3.0250E+01 7.9717E-01
-2.9416E+01 7.9718E-01
-2.8582E+01 7.9726E-01
-2.7748E+01 7.9729E-01
-2.6914E+01 7.9726E-01
-2.6081E+01 7.9729E-01
-2.5247E+01 7.9730E-01
-2.4413E+01 7.9731E-01
-2.3579E+01 7.9731E-01
-2.2745E+01 7.9725E-01
-2.1911E+01 7.9714E-01
-2.1077E+01 7.9704E-01
-2.0243E+01 7.9705E-01
-1.9409E+01 7.9705E-01
-1.8576E+01 7.9713E-01
-1.7742E+01 7.9718E-01
-1.6908E+01 7.9724E-01
-1.6074E+01 7.9733E-01
-1.5240E+01 7.9742E-01
-1.4406E+01 7.9745E-01
-1.3572E+01 7.9753E-01
-1.2738E+01 7.9757E-01
-1.1904E+01 7.9757E-01
-1.1071E+01 7.9752E-01
-1.0237E+01 7.9743E-01
-9.4028E+00 7.9750E-01
-8.5689E+00 7.9751E-01
-7.7350E+00 7.9744E-01
-6.9011E+00 7.9744E-01
-6.0672E+00 7.9738E-01
-5.2333E+00 7.9736E-01
-4.3994E+00 7.9747E-01
-3.5655E+00 7.9739E-01
-2.7317E+00 7.9736E-01
-1.8978E+00 7.9740E-01
-1.0639E+00 7.9739E-01
-2.2998E-01 7.9744E-01
 6.0391E-01 7.9742E-01
 1.4378E+00 7.9743E-01
 2.2717E+00 7.9746E-01
 3.1056E+00 7.9750E-01
 3.9395E+00 7.9763E-01
 4.7734E+00 7.9757E-01
 5.6072E+00 7.9762E-01
 6.4411E+00 7.9770E-01
 7.2750E+00 7.9773E-01
 8.1089E+00 7.9785E-01
 8.9428E+00 7.9788E-01
 9.7767E+00 7.9784E-01
 1.0611E+01 7.9798E-01
 1.1444E+01 7.9801E-01
 1.2278E+01 7.9806E-01
 1.3112E+01 7.9804E-01
 1.3946E+01 7.9798E-01
 1.4780E+01 7.9799E-01
 1.5614E+01 7.9795E-01
 1.6448E+01 7.9789E-01
 1.7282E+01 7.9785E-01
 1.8116E+01 7.9779E-01
 1.8949E+01 7.9779E-01
 1.9783E+01 7.9778E-01
 2.0617E+01 7.9787E-01
 2.1451E+01 7.9801E-01
 2.2285E+01 7.9810E-01
 2.3119E+01 7.9821E-01
 2.3953E+01 7.9825E-01
 2.4787E+01 7.9827E-01
 2.5621E+01 7.9826E-01
 2.6454E+01 7.9829E-01
 2.7288E+01 7.9833E-01
 2.8122E+01 7.9834E-01
 2.8956E+01 7.9833E-01
 2.9790E+01 7.9838E-01
 3.0624E+01 7.9836E-01
 3.1458E+01 7.9839E-01
 3.2292E+01 7.9839E-01
 3.3126E+01 7.9845E-01
 3.3959E+01 7.9851E-01
 3.4793E+01 7.9845E-01
 3.5627E+01 7.9849E-01
 3.6461E+01 7.9847E-01
 3.7295E+01 7.9849E-01
 3.8129E+01 7.9853E-01
 3.8963E+01 7.9851E-01
 3.9797E+01 7.9860E-01
 4.0631E+01 7.9856E-01
 4.1464E+01 7.9861E-01
 4.2298E+01 7.9859E-01
 4.3132E+01 7.9866E-01
 4.3966E+01 7.9860E-01
 4.4800E+01 7.9860E-01
 4.5634E+01 7.9865E-01
 4.6468E+01 7.9863E-01
 4.7302E+01 7.9867E-01
 4.8136E+01 7.9873E-01
 4.8969E+01 7.9874E-01
 4.9803E+01 7.9870E-01
 5.0637E+01 7.9881E-01
 5.1471E+01 7.9877E-01
 5.2305E+01 7.9880E-01
 5.3139E+01 7.9883E-01
 5.3973E+01 7.9885E-01
 5.4807E+01 7.9887E-01
 5.5641E+01 7.9885E-01
 5.6474E+01 7.9885E-01
 5.7308E+01 7.9892E-01
 5.8142E+01 7.9893E-01
 5.8976E+01 7.9891E-01
 5.9810E+01 7.9898E-01
 6.0644E+01 7.9899E-01
 6.1478E+01 7.9896E-01
 6.2312E+01 7.9901E-01
 6.3146E+01 7.9900E-01
 6.3980E+01 7.9900E-01
 6.4813E+01 7.9904E-01
 6.5647E+01 7.9908E-01
 6.6481E+01 7.9905E-01
 6.7315E+01 7.9911E-01
 6.8149E+01 7.9909E-01
 6.8983E+01 7.9912E-01
 6.9817E+01 7.9923E-01
 7.0651E+01 7.9914E-01
 7.1484E+01 7.9921E-01
 7.2318E+01 7.9917E-01
 7.3152E+01 7.9919E-01
 7.3986E+01 7.9920E-01
 7.4820E+01 7.9922E-01
 7.5654E+01 7.9927E-01
 7.6488E+01 7.9929E-01
 7.7322E+01 7.9924E-01
 7.8156E+01 7.9930E-01
 7.8990E+01 7.9930E-01
 7.9823E+01 7.9933E-01
 8.0657E+01 7.9936E-01
 8.1491E+01 7.9937E-01
 8.2325E+01 7.9936E-01
 8.3159E+01 7.9942E-01
 8.3993E+01 7.9938E-01
 8.4827E+01 7.9947E-01
 8.5661E+01 7.9946E-01
 8.6495E+01 7.9945E-01
 8.7328E+01 7.9950E-01
 8.8162E+01 7.9948E-01
 8.8996E+01 7.9953E-01
 8.9830E+01 7.9950E-01
 9.0664E+01 7.9953E-01
 9.1498E+01 7.9956E-01
 9.2332E+01 7.9952E-01
 9.3166E+01 7.9955E-01
 9.4000E+01 7.9955E-01
 9.4833E+01 7.9959E-01
 9.5667E+01 7.9964E-01
 9.6501E+01 7.9964E-01
 9.7335E+01 7.9967E-01
 9.8169E+01 7.9970E-01
 9.9003E+01 7.9969E-01
 9.9837E+01 7.9970E-01
 1.0067E+02 7.9973E-01
 1.0150E+02 7.9977E-01
 1.0234E+02 7.9975E-01
 1.0317E+02 7.9979E-01
 1.0401E+02 7.9980E-01
 1.0484E+02 7.9980E-01
 1.0567E+02 7.9980E-01
 1.0651E+02 7.9980E-01
 1.0734E+02 7.9986E-01
 1.0818E+02 7.9986E-01
 1.0901E+02 7.9989E-01
 1.0984E+02 7.9989E-01
 1.1068E+02 7.9994E-01
 1.1151E+02 7.9990E-01
 1.1235E+02 7.9999E-01
 1.1318E+02 7.9996E-01
 1.1401E+02 7.9998E-01
 1.1485E+02 7.9998E-01
 1.1568E+02 8.0000E-01
 1.1651E+02 8.0010E-01
 1.1735E+02 8.0002E-01
 1.1818E+02 8.0009E-01
 1.1902E+02 8.0008E-01
 1.1985E+02 8.0008E-01
 1.2068E+02 8.0015E-01
 1.2152E+02 8.0016E-01
 1.2235E+02 8.0014E-01
 1.2319E+02 8.0018E-01
 1.2402E+02 8.0021E-01
 1.2485E+02 8.0023E-01
 1.2569E+02 8.0022E-01
 1.2652E+02 8.0024E-01
 1.2736E+02 8.0023E-01
 1.2819E+02 8.0023E-01
 1.2902E+02 8.0029E-01
 1.2986E+02 8.0031E-01
 1.3069E+02 8.0032E-01
 1.3152E+02 8.0030E-01
 1.3236E+02 8.0038E-01
 1.3319E+02 8.0036E-01
 1.3403E+02 8.0043E-01
 1.3486E+02 8.0036E-01
 1.3569E+02 8.0036E-01
 1.3653E+02 8.0042E-01
 1.3736E+02 8.0043E-01
 1.3820E+02 8.0045E-01
 1.3903E+02 8.0045E-01
 1.3986E+02 8.0050E-01
 1.4070E+02 8.0051E-01
 1.4153E+02 8.0057E-01
 1.4237E+02 8.0054E-01
 1.4320E+02 8.0055E-01
 1.4403E+02 8.0059E-01
 1.4487E+02 8.0059E-01
 1.4570E+02 8.0057E-01
 1.4653E+02 8.0060E-01
 1.4737E+02 8.0061E-01
 1.4820E+02 8.0066E-01
 1.4904E+02 8.0061E-01
 1.4987E+02 8.0067E-01
 1.5070E+02 8.0068E-01
 1.5154E+02 8.0070E-01
 1.5237E+02 8.0071E-01
 1.5321E+02 8.0071E-01
 1.5404E+02 8.0080E-01
 1.5487E+02 8.0078E-01
 1.5571E+02 8.0080E-01
 1.5654E+02 8.0078E-01
 1.5738E+02 8.0082E-01
 1.5821E+02 8.0085E-01
 1.5904E+02 8.0088E-01
 1.5988E+02 8.0085E-01
 1.6071E+02 8.0095E-01
 1.6154E+02 8.0087E-01
 1.6238E+02 8.0093E-01
 1.6321E+02 8.0096E-01
 1.6405E+02 8.0095E-01
 1.6488E+02 8.0097E-01
 1.6571E+02 8.0099E-01
 1.6655E+02 8.0098E-01
