-1.6617E+02 7.9867E-01
-1.6534E+02 7.9870E-01
-1.6451E+02 7.9869E-01
-1.6367E+02 7.9871E-01
-1.6284E+02 7.9871E-01
-1.6200E+02 7.9884E-01
-1.6117E+02 7.9871E-01
-1.6034E+02 7.9878E-01
-1.5950E+02 7.9877E-01
-1.5867E+02 7.9883E-01
-1.5784E+02 7.9885E-01
-1.5700E+02 7.9888E-01
-1.5617E+02 7.9885E-01
-1.5533E+02 7.9886E-01
-1.5450E+02 7.9891E-01
-1.5367E+02 7.9891E-01
-1.5283E+02 7.9890E-01
-1.5200E+02 7.9893E-01
-1.5116E+02 7.9897E-01
-1.5033E+02 7.9897E-01
-1.4950E+02 7.9904E-01
-1.4866E+02 7.9897E-01
-1.4783E+02 7.9902E-01
-1.4699E+02 7.9902E-01
-1.4616E+02 7.9910E-01
-1.4533E+02 7.9905E-01
-1.4449E+02 7.9904E-01
-1.4366E+02 7.9912E-01
-1.4283E+02 7.9911E-01
-1.4199E+02 7.9914E-01
-1.4116E+02 7.9915E-01
-1.4032E+02 7.9912E-01
-1.3949E+02 7.9918E-01
-1.3866E+02 7.9919E-01
-1.3782E+02 7.9921E-01
-1.3699E+02 7.9920E-01
-1.3615E+02 7.9922E-01
-1.3532E+02 7.9926E-01
-1.3449E+02 7.9928E-01
-1.3365E+02 7.9930E-01
-1.3282E+02 7.9931E-01
-1.3198E+02 7.9934E-01
-1.3115E+02 7.9935E-01
-1.3032E+02 7.9935E-01
-1.2948E+02 7.9937E-01
-1.2865E+02 7.9940E-01
-1.2782E+02 7.9940E-01
-1.2698E+02 7.9935E-01
-1.2615E+02 7.9945E-01
-1.2531E+02 7.9943E-01
-1.2448E+02 7.9945E-01
-1.2365E+02 7.9948E-01
-1.2281E+02 7.9947E-01
-1.2198E+02 7.9953E-01
-1.2114E+02 7.9949E-01
-1.2031E+02 7.9954E-01
-1.1948E+02 7.9953E-01
-1.1864E+02 7.9959E-01
-1.1781E+02 7.9956E-01
-1.1697E+02 7.9961E-01
-1.1614E+02 7.9965E-01
-1.1531E+02 7.9967E-01
-1.1447E+02 7.9968E-01
-1.1364E+02 7.9966E-01
-1.1281E+02 7.9971E-01
-1.1197E+02 7.9970E-01
-1.1114E+02 7.9970E-01
-1.1030E+02 7.9975E-01
-1.0947E+02 7.9981E-01
-1.0864E+02 7.9979E-01
-1.0780E+02 7.9978E-01
-1.0697E+02 7.9981E-01
-1.0613E+02 7.9981E-01
-1.0530E+02 7.9977E-01
-1.0447E+02 7.9987E-01
-1.0363E+02 7.9985E-01
-1.0280E+02 7.9989E-01
-1.0196E+02 7.9991E-01
-1.0113E+02 7.9992E-01
-1.0030E+02 7.9996E-01
-9.9463E+01 7.9991E-01
-9.8629E+01 7.9991E-01
-9.7795E+01 7.9995E-01
-9.6961E+01 8.0005E-01
-9.6127E+01 8.0001E-01
-9.5293E+01 8.0002E-01
-9.4459E+01 8.0007E-01
-9.3626E+01 8.0007E-01
-9.2792E+01 8.0012E-01
-9.1958E+01 8.0011E-01
-9.1124E+01 8.0012E-01
-9.0290E+01 8.0014E-01
-8.9456E+01 8.0015E-01
-8.8622E+01 8.0017E-01
-8.7788E+01 8.0016E-01
-8.6954E+01 8.0019E-01
-8.6121E+01 8.0024E-01
-8.5287E+01 8.0022E-01
-8.4453E+01 8.0028E-01
-8.3619E+01 8.0026E-01
-8.2785E+01 8.0030E-01
-8.1951E+01 8.0030E-01
-8.1117E+01 8.0031E-01
-8.0283E+01 8.0032E-01
-7.9449E+01 8.0040E-01
-7.8616E+01 8.0034E-01
-7.7782E+01 8.0037E-01
-7.6948E+01 8.0036E-01
-7.6114E+01 8.0039E-01
-7.5280E+01 8.0039E-01
-7.4446E+01 8.0044E-01
-7.3612E+01 8.0046E-01
-7.2778E+01 8.0048E-01
-7.1944E+01 8.0051E-01
-7.1111E+01 8.0053E-01
-7.0277E+01 8.0055E-01
-6.9443E+01 8.0055E-01
-6.8609E+01 8.0054E-01
-6.7775E+01 8.0056E-01
-6.6941E+01 8.0057E-01
-6.6107E+01 8.0059E-01
-6.5273E+01 8.0066E-01
-6.4439E+01 8.0064E-01
-6.3606E+01 8.0070E-01
-6.2772E+01 8.0067E-01
-6.1938E+01 8.0070E-01
-6.1104E+01 8.0068E-01
-6.0270E+01 8.0072E-01
-5.9436E+01 8.0073E-01
-5.8602E+01 8.0075E-01
-5.7768E+01 8.0075E-01
-5.6934E+01 8.0080E-01
-5.6101E+01 8.0082E-01
-5.5267E+01 8.0079E-01
-5.4433E+01 8.0088E-01
-5.3599E+01 8.0082E-01
-5.2765E+01 8.0084E-01
-5.1931E+01 8.0086E-01
-5.1097E+01 8.0092E-01
-5.0263E+01 8.0090E-01
-4.9429E+01 8.0088E-01
-4.8596E+01 8.0100E-01
-4.7762E+01 8.0101E-01
-4.6928E+01 8.0096E-01
-4.6094E+01 8.0102E-01
-4.5260E+01 8.0102E-01
-4.4426E+01 8.0102E-01
-4.3592E+01 8.0102E-01
-4.2758E+01 8.0106E-01
-4.1924E+01 8.0107E-01
-4.1091E+01 8.0108E-01
-4.0257E+01 8.0107E-01
-3.9423E+01 8.0109E-01
-3.8589E+01 8.0114E-01
-3.7755E+01 8.0110E-01
-3.6921E+01 8.0110E-01
-3.6087E+01 8.0118E-01
-3.5253E+01 8.0118E-01
-3.4419E+01 8.0124E-01
-3.3586E+01 8.0121E-01
-3.2752E+01 8.0118E-01
-3.1918E+01 8.0125E-01
-3.1084E+01 8.0124E-01
-3.0250E+01 8.0130E-01
-2.9416E+01 8.0127E-01
-2.8582E+01 8.0128E-01
-2.7748E+01 8.0131E-01
-2.6914E+01 8.0134E-01
-2.6081E+01 8.0138E-01
-2.5247E+01 8.0141E-01
-2.4413E+01 8.0143E-01
-2.3579E+01 8.0138E-01
-2.2745E+01 8.0135E-01
-2.1911E+01 8.0127E-01
-2.1077E+01 8.0115E-01
-2.0243E+01 8.0111E-01
-1.9409E+01 8.0110E-01
-1.8576E+01 8.0120E-01
-1.7742E+01 8.0128E-01
-1.6908E+01 8.0132E-01
-1.6074E+01 8.0140E-01
-1.5240E+01 8.0146E-01
-1.4406E+01 8.0153E-01
-1.3572E+01 8.0159E-01
-1.2738E+01 8.0166E-01
-1.1904E+01 8.0164E-01
-1.1071E+01 8.0165E-01
-1.0237E+01 8.0157E-01
-9.4028E+00 8.0162E-01
-8.5689E+00 8.0164E-01
-7.7350E+00 8.0158E-01
-6.9011E+00 8.0157E-01
-6.0672E+00 8.0154E-01
-5.2333E+00 8.0153E-01
-4.3994E+00 8.0158E-01
-3.5655E+00 8.0147E-01
-2.7317E+00 8.0146E-01
-1.8978E+00 8.0153E-01
-1.0639E+00 8.0156E-01
-2.2998E-01 8.0159E-01
 6.0391E-01 8.0158E-01
 1.4378E+00 8.0159E-01
 2.2717E+00 8.0158E-01
 3.1056E+00 8.0161E-01
 3.9395E+00 8.0176E-01
 4.7734E+00 8.0174E-01
 5.6072E+00 8.0178E-01
 6.4411E+00 8.0187E-01
 7.2750E+00 8.0186E-01
 8.1089E+00 8.0196E-01
 8.9428E+00 8.0196E-01
 9.7767E+00 8.0195E-01
 1.0611E+01 8.0208E-01
 1.1444E+01 8.0211E-01
 1.2278E+01 8.0213E-01
 1.3112E+01 8.0211E-01
 1.3946E+01 8.0215E-01
 1.4780E+01 8.0206E-01
 1.5614E+01 8.0198E-01
 1.6448E+01 8.0202E-01
 1.7282E+01 8.0192E-01
 1.8116E+01 8.0185E-01
 1.8949E+01 8.0183E-01
 1.9783E+01 8.0189E-01
 2.0617E+01 8.0199E-01
 2.1451E+01 8.0213E-01
 2.2285E+01 8.0221E-01
 2.3119E+01 8.0227E-01
 2.3953E+01 8.0236E-01
 2.4787E+01 8.0239E-01
 2.5621E+01 8.0239E-01
 2.6454E+01 8.0238E-01
 2.7288E+01 8.0239E-01
 2.8122E+01 8.0241E-01
 2.8956E+01 8.0241E-01
 2.9790E+01 8.0243E-01
 3.0624E+01 8.0243E-01
 3.1458E+01 8.0249E-01
 3.2292E+01 8.0245E-01
 3.3126E+01 8.0254E-01
 3.3959E+01 8.0257E-01
 3.4793E+01 8.0260E-01
 3.5627E+01 8.0260E-01
 3.6461E+01 8.0258E-01
 3.7295E+01 8.0258E-01
 3.8129E+01 8.0265E-01
 3.8963E+01 8.0263E-01
 3.9797E+01 8.0265E-01
 4.0631E+01 8.0268E-01
 4.1464E+01 8.0269E-01
 4.2298E+01 8.0267E-01
 4.3132E+01 8.0273E-01
 4.3966E+01 8.0272E-01
 4.4800E+01 8.0273E-01
 4.5634E+01 8.0276E-01
 4.6468E+01 8.0277E-01
 4.7302E+01 8.0280E-01
 4.8136E+01 8.0281E-01
 4.8969E+01 8.0286E-01
 4.9803E+01 8.0278E-01
 5.0637E+01 8.0288E-01
 5.1471E+01 8.0292E-01
 5.2305E+01 8.0291E-01
 5.3139E+01 8.0288E-01
 5.3973E+01 8.0291E-01
 5.4807E+01 8.0291E-01
 5.5641E+01 8.0299E-01
 5.6474E+01 8.0295E-01
 5.7308E+01 8.0297E-01
 5.8142E+01 8.0299E-01
 5.8976E+01 8.0299E-01
 5.9810E+01 8.0310E-01
 6.0644E+01 8.0307E-01
 6.1478E+01 8.0307E-01
 6.2312E+01 8.0308E-01
 6.3146E+01 8.0308E-01
 6.3980E+01 8.0311E-01
 6.4813E+01 8.0311E-01
 6.5647E+01 8.0313E-01
 6.6481E+01 8.0319E-01
 6.7315E+01 8.0312E-01
 6.8149E+01 8.0320E-01
 6.8983E+01 8.0320E-01
 6.9817E+01 8.0325E-01
 7.0651E+01 8.0320E-01
 7.1484E+01 8.0329E-01
 7.2318E+01 8.0325E-01
 7.3152E+01 8.0327E-01
 7.3986E+01 8.0329E-01
 7.4820E+01 8.0332E-01
 7.5654E+01 8.0339E-01
 7.6488E+01 8.0335E-01
 7.7322E+01 8.0334E-01
 7.8156E+01 8.0338E-01
 7.8990E+01 8.0342E-01
 7.9823E+01 8.0340E-01
 8.0657E+01 8.0346E-01
 8.1491E+01 8.0345E-01
 8.2325E+01 8.0348E-01
 8.3159E+01 8.0345E-01
 8.3993E+01 8.0351E-01
 8.4827E+01 8.0352E-01
 8.5661E+01 8.0346E-01
 8.6495E+01 8.0354E-01
 8.7328E+01 8.0355E-01
 8.8162E+01 8.0360E-01
 8.8996E+01 8.0359E-01
 8.9830E+01 8.0365E-01
 9.0664E+01 8.0359E-01
 9.1498E+01 8.0367E-01
 9.2332E+01 8.0362E-01
 9.3166E+01 8.0367E-01
 9.4000E+01 8.0362E-01
 9.4833E+01 8.0370E-01
 9.5667E+01 8.0370E-01
 9.6501E+01 8.0372E-01
 9.7335E+01 8.0376E-01
 9.8169E+01 8.0375E-01
 9.9003E+01 8.0380E-01
 9.9837E+01 8.0376E-01
 1.0067E+02 8.0381E-01
 1.0150E+02 8.0385E-01
 1.0234E+02 8.0386E-01
 1.0317E+02 8.0388E-01
 1.0401E+02 8.0388E-01
 1.0484E+02 8.0382E-01
 1.0567E+02 8.0390E-01
 1.0651E+02 8.0388E-01
 1.0734E+02 8.0395E-01
 1.0818E+02 8.0395E-01
 1.0901E+02 8.0398E-01
 1.0984E+02 8.0398E-01
 1.1068E+02 8.0406E-01
 1.1151E+02 8.0396E-01
 1.1235E+02 8.0404E-01
 1.1318E+02 8.0402E-01
 1.1401E+02 8.0409E-01
 1.1485E+02 8.0411E-01
 1.1568E+02 8.0412E-01
 1.1651E+02 8.0411E-01
 1.1735E+02 8.0414E-01
 1.1818E+02 8.0416E-01
 1.1902E+02 8.0414E-01
 1.1985E+02 8.0421E-01
 1.2068E+02 8.0420E-01
 1.2152E+02 8.0421E-01
 1.2235E+02 8.0425E-01
 1.2319E+02 8.0424E-01
 1.2402E+02 8.0427E-01
 1.2485E+02 8.0427E-01
 1.2569E+02 8.0429E-01
 1.2652E+02 8.0434E-01
 1.2736E+02 8.0434E-01
 1.2819E+02 8.0431E-01
 1.2902E+02 8.0436E-01
 1.2986E+02 8.0436E-01
 1.3069E+02 8.0436E-01
 1.3152E+02 8.0432E-01
 1.3236E+02 8.0446E-01
 1.3319E+02 8.0442E-01
 1.3403E+02 8.0446E-01
 1.3486E+02 8.0451E-01
 1.3569E+02 8.0451E-01
 1.3653E+02 8.0448E-01
 1.3736E+02 8.0454E-01
 1.3820E+02 8.0454E-01
 1.3903E+02 8.0454E-01
 1.3986E+02 8.0459E-01
 1.4070E+02 8.0464E-01
 1.4153E+02 8.0466E-01
 1.4237E+02 8.0465E-01
 1.4320E+02 8.0462E-01
 1.4403E+02 8.0464E-01
 1.4487E+02 8.0472E-01
 1.4570E+02 8.0463E-01
 1.4653E+02 8.0468E-01
 1.4737E+02 8.0475E-01
 1.4820E+02 8.0471E-01
 1.4904E+02 8.0476E-01
 1.4987E+02 8.0482E-01
 1.5070E+02 8.0479E-01
 1.5154E+02 8.0483E-01
 1.5237E+02 8.0481E-01
 1.5321E+02 8.0482E-01
 1.5404E+02 8.0490E-01
 1.5487E+02 8.0484E-01
 1.5571E+02 8.0486E-01
 1.5654E+02 8.0487E-01
 1.5738E+02 8.0494E-01
 1.5821E+02 8.0491E-01
 1.5904E+02 8.0493E-01
 1.5988E+02 8.0498E-01
 1.6071E+02 8.0496E-01
 1.6154E+02 8.0494E-01
 1.6238E+02 8.0501E-01
 1.6321E+02 8.0503E-01
 1.6405E+02 8.0506E-01
 1.6488E+02 8.0503E-01
 1.6571E+02 8.0507E-01
 1.6655E+02 8.0508E-01
