-1.6617E+02 7.6929E-01
-1.6534E+02 7.6934E-01
-1.6451E+02 7.6931E-01
-1.6367E+02 7.6935E-01
-1.6284E+02 7.6936E-01
-1.6200E+02 7.6932E-01
-1.6117E+02 7.6939E-01
-1.6034E+02 7.6939E-01
-1.5950E+02 7.6941E-01
-1.5867E+02 7.6942E-01
-1.5784E+02 7.6941E-01
-1.5700E+02 7.6948E-01
-1.5617E+02 7.6951E-01
-1.5533E+02 7.6950E-01
-1.5450E+02 7.6954E-01
-1.5367E+02 7.6956E-01
-1.5283E+02 7.6959E-01
-1.5200E+02 7.6957E-01
-1.5116E+02 7.6958E-01
-1.5033E+02 7.6965E-01
-1.4950E+02 7.6958E-01
-1.4866E+02 7.6958E-01
-1.4783E+02 7.6963E-01
-1.4699E+02 7.6966E-01
-1.4616E+02 7.6969E-01
-1.4533E+02 7.6969E-01
-1.4449E+02 7.6971E-01
-1.4366E+02 7.6973E-01
-1.4283E+02 7.6976E-01
-1.4199E+02 7.6977E-01
-1.4116E+02 7.6977E-01
-1.4032E+02 7.6976E-01
-1.3949E+02 7.6981E-01
-1.3866E+02 7.6982E-01
-1.3782E+02 7.6986E-01
-1.3699E+02 7.6981E-01
-1.3615E+02 7.6988E-01
-1.3532E+02 7.6988E-01
-1.3449E+02 7.6991E-01
-1.3365E+02 7.6992E-01
-1.3282E+02 7.6991E-01
-1.3198E+02 7.6995E-01
-1.3115E+02 7.6999E-01
-1.3032E+02 7.6998E-01
-1.2948E+02 7.7000E-01
-1.2865E+02 7.7001E-01
-1.2782E+02 7.7005E-01
-1.2698E+02 7.7002E-01
-1.2615E+02 7.7005E-01
-1.2531E+02 7.7008E-01
-1.2448E+02 7.7007E-01
-1.2365E+02 7.7008E-01
-1.2281E+02 7.7024E-01
-1.2198E+02 7.7012E-01
-1.2114E+02 7.7014E-01
-1.2031E+02 7.7021E-01
-1.1948E+02 7.7021E-01
-1.1864E+02 7.7023E-01
-1.1781E+02 7.7029E-01
-1.1697E+02 7.7027E-01
-1.1614E+02 7.7026E-01
-1.1531E+02 7.7030E-01
-1.1447E+02 7.7028E-01
-1.1364E+02 7.7032E-01
-1.1281E+02 7.7030E-01
-1.1197E+02 7.7038E-01
-1.1114E+02 7.7033E-01
-1.1030E+02 7.7039E-01
-1.0947E+02 7.7038E-01
-1.0864E+02 7.7043E-01
-1.0780E+02 7.7045E-01
-1.0697E+02 7.7047E-01
-1.0613E+02 7.7045E-01
-1.0530E+02 7.7046E-01
-1.0447E+02 7.7046E-01
-1.0363E+02 7.7054E-01
-1.0280E+02 7.7051E-01
-1.0196E+02 7.7055E-01
-1.0113E+02 7.7054E-01
-1.0030E+02 7.7055E-01
-9.9463E+01 7.7059E-01
-9.8629E+01 7.7063E-01
-9.7795E+01 7.7064E-01
-9.6961E+01 7.7066E-01
-9.6127E+01 7.7063E-01
-9.5293E+01 7.7065E-01
-9.4459E+01 7.7070E-01
-9.3626E+01 7.7069E-01
-9.2792E+01 7.7077E-01
-9.1958E+01 7.7072E-01
-9.1124E+01 7.7078E-01
-9.0290E+01 7.7078E-01
-8.9456E+01 7.7079E-01
-8.8622E+01 7.7082E-01
-8.7788E+01 7.7079E-01
-8.6954E+01 7.7088E-01
-8.6121E+01 7.7086E-01
-8.5287E+01 7.7090E-01
-8.4453E+01 7.7083E-01
-8.3619E+01 7.7089E-01
-8.2785E+01 7.7091E-01
-8.1951E+01 7.7096E-01
-8.1117E+01 7.7092E-01
-8.0283E+01 7.7097E-01
-7.9449E+01 7.7097E-01
-7.8616E+01 7.7101E-01
-7.7782E+01 7.7100E-01
-7.6948E+01 7.7098E-01
-7.6114E+01 7.7108E-01
-7.5280E+01 7.7101E-01
-7.4446E+01 7.7108E-01
-7.3612E+01 7.7107E-01
-7.2778E+01 7.7112E-01
-7.1944E+01 7.7112E-01
-7.1111E+01 7.7113E-01
-7.0277E+01 7.7111E-01
-6.9443E+01 7.7121E-01
-6.8609E+01 7.7122E-01
-6.7775E+01 7.7124E-01
-6.6941E+01 7.7122E-01
-6.6107E+01 7.7122E-01
-6.5273E+01 7.7125E-01
-6.4439E+01 7.7128E-01
-6.3606E+01 7.7128E-01
-6.2772E+01 7.7135E-01
-6.1938E+01 7.7128E-01
-6.1104E+01 7.7140E-01
-6.0270E+01 7.7132E-01
-5.9436E+01 7.7137E-01
-5.8602E+01 7.7134E-01
-5.7768E+01 7.7141E-01
-5.6934E+01 7.7140E-01
-5.6101E+01 7.7147E-01
-5.5267E+01 7.7147E-01
-5.4433E+01 7.7145E-01
-5.3599E+01 7.7147E-01
-5.2765E+01 7.7151E-01
-5.1931E+01 7.7152E-01
-5.1097E+01 7.7151E-01
-5.0263E+01 7.7155E-01
-4.9429E+01 7.7158E-01
-4.8596E+01 7.7156E-01
-4.7762E+01 7.7161E-01
-4.6928E+01 7.7163E-01
-4.6094E+01 7.7162E-01
-4.5260E+01 7.7165E-01
-4.4426E+01 7.7169E-01
-4.3592E+01 7.7165E-01
-4.2758E+01 7.7166E-01
-4.1924E+01 7.7172E-01
-4.1091E+01 7.7171E-01
-4.0257E+01 7.7172E-01
-3.9423E+01 7.7172E-01
-3.8589E+01 7.7176E-01
-3.7755E+01 7.7180E-01
-3.6921E+01 7.7183E-01
-3.6087E+01 7.7187E-01
-3.5253E+01 7.7188E-01
-3.4419E+01 7.7187E-01
-3.3586E+01 7.7184E-01
-3.2752E+01 7.7188E-01
-3.1918E+01 7.7189E-01
-3.1084E+01 7.7192E-01
-3.0250E+01 7.7196E-01
-2.9416E+01 7.7193E-01
-2.8582E+01 7.7197E-01
-2.7748E+01 7.7196E-01
-2.6914E+01 7.7204E-01
-2.6081E+01 7.7204E-01
-2.5247E+01 7.7206E-01
-2.4413E+01 7.7204E-01
-2.3579E+01 7.7201E-01
-2.2745E+01 7.7182E-01
-2.1911E+01 7.7180E-01
-2.1077E+01 7.7179E-01
-2.0243E+01 7.7184E-01
-1.9409E+01 7.7194E-01
-1.8576E+01 7.7196E-01
-1.7742E+01 7.7204E-01
-1.6908E+01 7.7206E-01
-1.6074E+01 7.7220E-01
-1.5240E+01 7.7221E-01
-1.4406E+01 7.7226E-01
-1.3572E+01 7.7225E-01
-1.2738E+01 7.7222E-01
-1.1904E+01 7.7221E-01
-1.1071E+01 7.7218E-01
-1.0237E+01 7.7217E-01
-9.4028E+00 7.7207E-01
-8.5689E+00 7.7198E-01
-7.7350E+00 7.7213E-01
-6.9011E+00 7.7210E-01
-6.0672E+00 7.7208E-01
-5.2333E+00 7.7214E-01
-4.3994E+00 7.7213E-01
-3.5655E+00 7.7216E-01
-2.7317E+00 7.7213E-01
-1.8978E+00 7.7220E-01
-1.0639E+00 7.7224E-01
-2.2998E-01 7.7226E-01
 6.0391E-01 7.7227E-01
 1.4378E+00 7.7224E-01
 2.2717E+00 7.7224E-01
 3.1056E+00 7.7231E-01
 3.9395E+00 7.7230E-01
 4.7734E+00 7.7235E-01
 5.6072E+00 7.7233E-01
 6.4411E+00 7.7237E-01
 7.2750E+00 7.7240E-01
 8.1089E+00 7.7235E-01
 8.9428E+00 7.7239E-01
 9.7767E+00 7.7255E-01
 1.0611E+01 7.7258E-01
 1.1444E+01 7.7268E-01
 1.2278E+01 7.7272E-01
 1.3112E+01 7.7278E-01
 1.3946E+01 7.7279E-01
 1.4780E+01 7.7280E-01
 1.5614E+01 7.7283E-01
 1.6448E+01 7.7273E-01
 1.7282E+01 7.7270E-01
 1.8116E+01 7.7271E-01
 1.8949E+01 7.7265E-01
 1.9783E+01 7.7261E-01
 2.0617E+01 7.7259E-01
 2.1451E+01 7.7265E-01
 2.2285E+01 7.7278E-01
 2.3119E+01 7.7294E-01
 2.3953E+01 7.7294E-01
 2.4787E+01 7.7300E-01
 2.5621E+01 7.7302E-01
 2.6454E+01 7.7308E-01
 2.7288E+01 7.7303E-01
 2.8122E+01 7.7307E-01
 2.8956E+01 7.7307E-01
 2.9790E+01 7.7308E-01
 3.0624E+01 7.7312E-01
 3.1458E+01 7.7313E-01
 3.2292E+01 7.7313E-01
 3.3126E+01 7.7315E-01
 3.3959E+01 7.7313E-01
 3.4793E+01 7.7317E-01
 3.5627E+01 7.7323E-01
 3.6461E+01 7.7323E-01
 3.7295E+01 7.7323E-01
 3.8129E+01 7.7323E-01
 3.8963E+01 7.7326E-01
 3.9797E+01 7.7328E-01
 4.0631E+01 7.7331E-01
 4.1464E+01 7.7334E-01
 4.2298E+01 7.7333E-01
 4.3132E+01 7.7337E-01
 4.3966E+01 7.7335E-01
 4.4800E+01 7.7342E-01
 4.5634E+01 7.7337E-01
 4.6468E+01 7.7343E-01
 4.7302E+01 7.7341E-01
 4.8136E+01 7.7347E-01
 4.8969E+01 7.7351E-01
 4.9803E+01 7.7346E-01
 5.0637E+01 7.7347E-01
 5.1471E+01 7.7348E-01
 5.2305E+01 7.7357E-01
 5.3139E+01 7.7355E-01
 5.3973E+01 7.7356E-01
 5.4807E+01 7.7358E-01
 5.5641E+01 7.7362E-01
 5.6474E+01 7.7359E-01
 5.7308E+01 7.7364E-01
 5.8142E+01 7.7363E-01
 5.8976E+01 7.7362E-01
 5.9810E+01 7.7364E-01
 6.0644E+01 7.7371E-01
 6.1478E+01 7.7369E-01
 6.2312E+01 7.7378E-01
 6.3146E+01 7.7373E-01
 6.3980E+01 7.7377E-01
 6.4813E+01 7.7378E-01
 6.5647E+01 7.7379E-01
 6.6481E+01 7.7381E-01
 6.7315E+01 7.7385E-01
 6.8149E+01 7.7382E-01
 6.8983E+01 7.7389E-01
 6.9817E+01 7.7386E-01
 7.0651E+01 7.7386E-01
 7.1484E+01 7.7390E-01
 7.2318E+01 7.7393E-01
 7.3152E+01 7.7392E-01
 7.3986E+01 7.7396E-01
 7.4820E+01 7.7399E-01
 7.5654E+01 7.7398E-01
 7.6488E+01 7.7398E-01
 7.7322E+01 7.7399E-01
 7.8156E+01 7.7406E-01
 7.8990E+01 7.7402E-01
 7.9823E+01 7.7410E-01
 8.0657E+01 7.7409E-01
 8.1491E+01 7.7410E-01
 8.2325E+01 7.7410E-01
 8.3159E+01 7.7418E-01
 8.3993E+01 7.7412E-01
 8.4827E+01 7.7417E-01
 8.5661E+01 7.7421E-01
 8.6495E+01 7.7413E-01
 8.7328E+01 7.7422E-01
 8.8162E+01 7.7422E-01
 8.8996E+01 7.7423E-01
 8.9830E+01 7.7426E-01
 9.0664E+01 7.7424E-01
 9.1498E+01 7.7425E-01
 9.2332E+01 7.7426E-01
 9.3166E+01 7.7435E-01
 9.4000E+01 7.7434E-01
 9.4833E+01 7.7433E-01
 9.5667E+01 7.7438E-01
 9.6501E+01 7.7440E-01
 9.7335E+01 7.7437E-01
 9.8169E+01 7.7443E-01
 9.9003E+01 7.7441E-01
 9.9837E+01 7.7445E-01
 1.0067E+02 7.7446E-01
 1.0150E+02 7.7446E-01
 1.0234E+02 7.7451E-01
 1.0317E+02 7.7451E-01
 1.0401E+02 7.7452E-01
 1.0484E+02 7.7451E-01
 1.0567E+02 7.7458E-01
 1.0651E+02 7.7453E-01
 1.0734E+02 7.7459E-01
 1.0818E+02 7.7461E-01
 1.0901E+02 7.7462E-01
 1.0984E+02 7.7464E-01
 1.1068E+02 7.7472E-01
 1.1151E+02 7.7465E-01
 1.1235E+02 7.7472E-01
 1.1318E+02 7.7472E-01
 1.1401E+02 7.7472E-01
 1.1485E+02 7.7474E-01
 1.1568E+02 7.7476E-01
 1.1651E+02 7.7473E-01
 1.1735E+02 7.7476E-01
 1.1818E+02 7.7479E-01
 1.1902E+02 7.7486E-01
 1.1985E+02 7.7483E-01
 1.2068E+02 7.7486E-01
 1.2152E+02 7.7483E-01
 1.2235E+02 7.7485E-01
 1.2319E+02 7.7491E-01
 1.2402E+02 7.7488E-01
 1.2485E+02 7.7496E-01
 1.2569E+02 7.7493E-01
 1.2652E+02 7.7493E-01
 1.2736E+02 7.7500E-01
 1.2819E+02 7.7500E-01
 1.2902E+02 7.7499E-01
 1.2986E+02 7.7504E-01
 1.3069E+02 7.7503E-01
 1.3152E+02 7.7515E-01
 1.3236E+02 7.7507E-01
 1.3319E+02 7.7509E-01
 1.3403E+02 7.7510E-01
 1.3486E+02 7.7514E-01
 1.3569E+02 7.7512E-01
 1.3653E+02 7.7519E-01
 1.3736E+02 7.7519E-01
 1.3820E+02 7.7519E-01
 1.3903E+02 7.7524E-01
 1.3986E+02 7.7523E-01
 1.4070E+02 7.7527E-01
 1.4153E+02 7.7526E-01
 1.4237E+02 7.7526E-01
 1.4320E+02 7.7526E-01
 1.4403E+02 7.7533E-01
 1.4487E+02 7.7537E-01
 1.4570E+02 7.7538E-01
 1.4653E+02 7.7538E-01
 1.4737E+02 7.7536E-01
 1.4820E+02 7.7542E-01
 1.4904E+02 7.7545E-01
 1.4987E+02 7.7540E-01
 1.5070E+02 7.7540E-01
 1.5154E+02 7.7543E-01
 1.5237E+02 7.7541E-01
 1.5321E+02 7.7543E-01
 1.5404E+02 7.7549E-01
 1.5487E+02 7.7552E-01
 1.5571E+02 7.7551E-01
 1.5654E+02 7.7550E-01
 1.5738E+02 7.7556E-01
 1.5821E+02 7.7561E-01
 1.5904E+02 7.7557E-01
 1.5988E+02 7.7562E-01
 1.6071E+02 7.7560E-01
 1.6154E+02 7.7568E-01
 1.6238E+02 7.7567E-01
 1.6321E+02 7.7567E-01
 1.6405E+02 7.7567E-01
 1.6488E+02 7.7571E-01
 1.6571E+02 7.7571E-01
 1.6655E+02 7.7572E-01
