-1.6617E+02 8.0276E-01
-1.6534E+02 8.0272E-01
-1.6451E+02 8.0275E-01
-1.6367E+02 8.0275E-01
-1.6284E+02 8.0277E-01
-1.6200E+02 8.0286E-01
-1.6117E+02 8.0282E-01
-1.6034E+02 8.0283E-01
-1.5950E+02 8.0283E-01
-1.5867E+02 8.0292E-01
-1.5784E+02 8.0284E-01
-1.5700E+02 8.0291E-01
-1.5617E+02 8.0289E-01
-1.5533E+02 8.0290E-01
-1.5450E+02 8.0293E-01
-1.5367E+02 8.0293E-01
-1.5283E+02 8.0295E-01
-1.5200E+02 8.0298E-01
-1.5116E+02 8.0302E-01
-1.5033E+02 8.0303E-01
-1.4950E+02 8.0306E-01
-1.4866E+02 8.0307E-01
-1.4783E+02 8.0308E-01
-1.4699E+02 8.0310E-01
-1.4616E+02 8.0313E-01
-1.4533E+02 8.0309E-01
-1.4449E+02 8.0316E-01
-1.4366E+02 8.0315E-01
-1.4283E+02 8.0316E-01
-1.4199E+02 8.0321E-01
-1.4116E+02 8.0321E-01
-1.4032E+02 8.0320E-01
-1.3949E+02 8.0324E-01
-1.3866E+02 8.0323E-01
-1.3782E+02 8.0328E-01
-1.3699E+02 8.0323E-01
-1.3615E+02 8.0333E-01
-1.3532E+02 8.0329E-01
-1.3449E+02 8.0333E-01
-1.3365E+02 8.0339E-01
-1.3282E+02 8.0340E-01
-1.3198E+02 8.0341E-01
-1.3115E+02 8.0342E-01
-1.3032E+02 8.0338E-01
-1.2948E+02 8.0343E-01
-1.2865E+02 8.0349E-01
-1.2782E+02 8.0345E-01
-1.2698E+02 8.0349E-01
-1.2615E+02 8.0350E-01
-1.2531E+02 8.0350E-01
-1.2448E+02 8.0352E-01
-1.2365E+02 8.0352E-01
-1.2281E+02 8.0354E-01
-1.2198E+02 8.0359E-01
-1.2114E+02 8.0355E-01
-1.2031E+02 8.0362E-01
-1.1948E+02 8.0362E-01
-1.1864E+02 8.0364E-01
-1.1781E+02 8.0358E-01
-1.1697E+02 8.0369E-01
-1.1614E+02 8.0366E-01
-1.1531E+02 8.0367E-01
-1.1447E+02 8.0374E-01
-1.1364E+02 8.0375E-01
-1.1281E+02 8.0380E-01
-1.1197E+02 8.0375E-01
-1.1114E+02 8.0375E-01
-1.1030E+02 8.0382E-01
-1.0947E+02 8.0381E-01
-1.0864E+02 8.0383E-01
-1.0780E+02 8.0385E-01
-1.0697E+02 8.0387E-01
-1.0613E+02 8.0384E-01
-1.0530E+02 8.0389E-01
-1.0447E+02 8.0392E-01
-1.0363E+02 8.0393E-01
-1.0280E+02 8.0393E-01
-1.0196E+02 8.0396E-01
-1.0113E+02 8.0397E-01
-1.0030E+02 8.0400E-01
-9.9463E+01 8.0401E-01
-9.8629E+01 8.0401E-01
-9.7795E+01 8.0406E-01
-9.6961E+01 8.0406E-01
-9.6127E+01 8.0405E-01
-9.5293E+01 8.0408E-01
-9.4459E+01 8.0411E-01
-9.3626E+01 8.0411E-01
-9.2792E+01 8.0418E-01
-9.1958E+01 8.0415E-01
-9.1124E+01 8.0415E-01
-9.0290E+01 8.0417E-01
-8.9456E+01 8.0419E-01
-8.8622E+01 8.0424E-01
-8.7788E+01 8.0423E-01
-8.6954E+01 8.0422E-01
-8.6121E+01 8.0431E-01
-8.5287E+01 8.0423E-01
-8.4453E+01 8.0431E-01
-8.3619E+01 8.0433E-01
-8.2785E+01 8.0434E-01
-8.1951E+01 8.0432E-01
-8.1117E+01 8.0436E-01
-8.0283E+01 8.0438E-01
-7.9449E+01 8.0440E-01
-7.8616E+01 8.0437E-01
-7.7782E+01 8.0440E-01
-7.6948E+01 8.0440E-01
-7.6114E+01 8.0446E-01
-7.5280E+01 8.0449E-01
-7.4446E+01 8.0451E-01
-7.3612E+01 8.0449E-01
-7.2778E+01 8.0454E-01
-7.1944E+01 8.0459E-01
-7.1111E+01 8.0456E-01
-7.0277E+01 8.0462E-01
-6.9443E+01 8.0457E-01
-6.8609E+01 8.0464E-01
-6.7775E+01 8.0463E-01
-6.6941E+01 8.0463E-01
-6.6107E+01 8.0463E-01
-6.5273E+01 8.0467E-01
-6.4439E+01 8.0471E-01
-6.3606E+01 8.0475E-01
-6.2772E+01 8.0474E-01
-6.1938E+01 8.0477E-01
-6.1104E+01 8.0469E-01
-6.0270E+01 8.0476E-01
-5.9436E+01 8.0481E-01
-5.8602E+01 8.0478E-01
-5.7768E+01 8.0482E-01
-5.6934E+01 8.0481E-01
-5.6101E+01 8.0481E-01
-5.5267E+01 8.0485E-01
-5.4433E+01 8.0488E-01
-5.3599E+01 8.0490E-01
-5.2765E+01 8.0495E-01
-5.1931E+01 8.0494E-01
-5.1097E+01 8.0495E-01
-5.0263E+01 8.0490E-01
-4.9429E+01 8.0498E-01
-4.8596E+01 8.0499E-01
-4.7762E+01 8.0502E-01
-4.6928E+01 8.0504E-01
-4.6094E+01 8.0506E-01
-4.5260E+01 8.0501E-01
-4.4426E+01 8.0507E-01
-4.3592E+01 8.0511E-01
-4.2758E+01 8.0508E-01
-4.1924E+01 8.0512E-01
-4.1091E+01 8.0515E-01
-4.0257E+01 8.0515E-01
-3.9423E+01 8.0514E-01
-3.8589E+01 8.0518E-01
-3.7755E+01 8.0515E-01
-3.6921E+01 8.0515E-01
-3.6087E+01 8.0524E-01
-3.5253E+01 8.0530E-01
-3.4419E+01 8.0526E-01
-3.3586E+01 8.0528E-01
-3.2752E+01 8.0530E-01
-3.1918E+01 8.0529E-01
-3.1084E+01 8.0535E-01
-3.0250E+01 8.0539E-01
-2.9416E+01 8.0540E-01
-2.8582E+01 8.0537E-01
-2.7748E+01 8.0538E-01
-2.6914E+01 8.0540E-01
-2.6081E+01 8.0540E-01
-2.5247E+01 8.0544E-01
-2.4413E+01 8.0547E-01
-2.3579E+01 8.0546E-01
-2.2745E+01 8.0542E-01
-2.1911E+01 8.0537E-01
-2.1077E+01 8.0526E-01
-2.0243E+01 8.0519E-01
-1.9409E+01 8.0516E-01
-1.8576E+01 8.0521E-01
-1.7742E+01 8.0530E-01
-1.6908E+01 8.0538E-01
-1.6074E+01 8.0543E-01
-1.5240E+01 8.0552E-01
-1.4406E+01 8.0560E-01
-1.3572E+01 8.0564E-01
-1.2738E+01 8.0569E-01
-1.1904E+01 8.0571E-01
-1.1071E+01 8.0570E-01
-1.0237E+01 8.0562E-01
-9.4028E+00 8.0568E-01
-8.5689E+00 8.0571E-01
-7.7350E+00 8.0568E-01
-6.9011E+00 8.0569E-01
-6.0672E+00 8.0564E-01
-5.2333E+00 8.0565E-01
-4.3994E+00 8.0563E-01
-3.5655E+00 8.0556E-01
-2.7317E+00 8.0558E-01
-1.8978E+00 8.0561E-01
-1.0639E+00 8.0567E-01
-2.2998E-01 8.0569E-01
 6.0391E-01 8.0570E-01
 1.4378E+00 8.0569E-01
 2.2717E+00 8.0567E-01
 3.1056E+00 8.0572E-01
 3.9395E+00 8.0580E-01
 4.7734E+00 8.0586E-01
 5.6072E+00 8.0583E-01
 6.4411E+00 8.0597E-01
 7.2750E+00 8.0595E-01
 8.1089E+00 8.0605E-01
 8.9428E+00 8.0602E-01
 9.7767E+00 8.0601E-01
 1.0611E+01 8.0614E-01
 1.1444E+01 8.0618E-01
 1.2278E+01 8.0614E-01
 1.3112E+01 8.0614E-01
 1.3946E+01 8.0615E-01
 1.4780E+01 8.0609E-01
 1.5614E+01 8.0604E-01
 1.6448E+01 8.0603E-01
 1.7282E+01 8.0594E-01
 1.8116E+01 8.0587E-01
 1.8949E+01 8.0590E-01
 1.9783E+01 8.0600E-01
 2.0617E+01 8.0606E-01
 2.1451E+01 8.0622E-01
 2.2285E+01 8.0629E-01
 2.3119E+01 8.0634E-01
 2.3953E+01 8.0638E-01
 2.4787E+01 8.0638E-01
 2.5621E+01 8.0642E-01
 2.6454E+01 8.0641E-01
 2.7288E+01 8.0648E-01
 2.8122E+01 8.0648E-01
 2.8956E+01 8.0649E-01
 2.9790E+01 8.0653E-01
 3.0624E+01 8.0652E-01
 3.1458E+01 8.0650E-01
 3.2292E+01 8.0651E-01
 3.3126E+01 8.0658E-01
 3.3959E+01 8.0662E-01
 3.4793E+01 8.0667E-01
 3.5627E+01 8.0658E-01
 3.6461E+01 8.0664E-01
 3.7295E+01 8.0661E-01
 3.8129E+01 8.0666E-01
 3.8963E+01 8.0670E-01
 3.9797E+01 8.0669E-01
 4.0631E+01 8.0671E-01
 4.1464E+01 8.0673E-01
 4.2298E+01 8.0671E-01
 4.3132E+01 8.0679E-01
 4.3966E+01 8.0680E-01
 4.4800E+01 8.0679E-01
 4.5634E+01 8.0681E-01
 4.6468E+01 8.0680E-01
 4.7302E+01 8.0685E-01
 4.8136E+01 8.0684E-01
 4.8969E+01 8.0688E-01
 4.9803E+01 8.0687E-01
 5.0637E+01 8.0697E-01
 5.1471E+01 8.0692E-01
 5.2305E+01 8.0695E-01
 5.3139E+01 8.0695E-01
 5.3973E+01 8.0693E-01
 5.4807E+01 8.0697E-01
 5.5641E+01 8.0698E-01
 5.6474E+01 8.0702E-01
 5.7308E+01 8.0701E-01
 5.8142E+01 8.0706E-01
 5.8976E+01 8.0706E-01
 5.9810E+01 8.0707E-01
 6.0644E+01 8.0712E-01
 6.1478E+01 8.0712E-01
 6.2312E+01 8.0714E-01
 6.3146E+01 8.0711E-01
 6.3980E+01 8.0715E-01
 6.4813E+01 8.0719E-01
 6.5647E+01 8.0718E-01
 6.6481E+01 8.0717E-01
 6.7315E+01 8.0724E-01
 6.8149E+01 8.0723E-01
 6.8983E+01 8.0730E-01
 6.9817E+01 8.0730E-01
 7.0651E+01 8.0730E-01
 7.1484E+01 8.0731E-01
 7.2318E+01 8.0729E-01
 7.3152E+01 8.0734E-01
 7.3986E+01 8.0736E-01
 7.4820E+01 8.0737E-01
 7.5654E+01 8.0739E-01
 7.6488E+01 8.0739E-01
 7.7322E+01 8.0741E-01
 7.8156E+01 8.0741E-01
 7.8990E+01 8.0743E-01
 7.9823E+01 8.0747E-01
 8.0657E+01 8.0751E-01
 8.1491E+01 8.0749E-01
 8.2325E+01 8.0748E-01
 8.3159E+01 8.0755E-01
 8.3993E+01 8.0758E-01
 8.4827E+01 8.0758E-01
 8.5661E+01 8.0753E-01
 8.6495E+01 8.0758E-01
 8.7328E+01 8.0764E-01
 8.8162E+01 8.0764E-01
 8.8996E+01 8.0766E-01
 8.9830E+01 8.0765E-01
 9.0664E+01 8.0769E-01
 9.1498E+01 8.0766E-01
 9.2332E+01 8.0770E-01
 9.3166E+01 8.0769E-01
 9.4000E+01 8.0773E-01
 9.4833E+01 8.0775E-01
 9.5667E+01 8.0779E-01
 9.6501E+01 8.0783E-01
 9.7335E+01 8.0778E-01
 9.8169E+01 8.0779E-01
 9.9003E+01 8.0780E-01
 9.9837E+01 8.0782E-01
 1.0067E+02 8.0786E-01
 1.0150E+02 8.0788E-01
 1.0234E+02 8.0789E-01
 1.0317E+02 8.0793E-01
 1.0401E+02 8.0793E-01
 1.0484E+02 8.0792E-01
 1.0567E+02 8.0794E-01
 1.0651E+02 8.0795E-01
 1.0734E+02 8.0799E-01
 1.0818E+02 8.0800E-01
 1.0901E+02 8.0805E-01
 1.0984E+02 8.0812E-01
 1.1068E+02 8.0808E-01
 1.1151E+02 8.0807E-01
 1.1235E+02 8.0809E-01
 1.1318E+02 8.0810E-01
 1.1401E+02 8.0812E-01
 1.1485E+02 8.0815E-01
 1.1568E+02 8.0816E-01
 1.1651E+02 8.0820E-01
 1.1735E+02 8.0819E-01
 1.1818E+02 8.0822E-01
 1.1902E+02 8.0825E-01
 1.1985E+02 8.0821E-01
 1.2068E+02 8.0822E-01
 1.2152E+02 8.0818E-01
 1.2235E+02 8.0829E-01
 1.2319E+02 8.0829E-01
 1.2402E+02 8.0831E-01
 1.2485E+02 8.0835E-01
 1.2569E+02 8.0835E-01
 1.2652E+02 8.0839E-01
 1.2736E+02 8.0835E-01
 1.2819E+02 8.0836E-01
 1.2902E+02 8.0842E-01
 1.2986E+02 8.0845E-01
 1.3069E+02 8.0842E-01
 1.3152E+02 8.0839E-01
 1.3236E+02 8.0853E-01
 1.3319E+02 8.0847E-01
 1.3403E+02 8.0854E-01
 1.3486E+02 8.0850E-01
 1.3569E+02 8.0856E-01
 1.3653E+02 8.0853E-01
 1.3736E+02 8.0857E-01
 1.3820E+02 8.0858E-01
 1.3903E+02 8.0862E-01
 1.3986E+02 8.0866E-01
 1.4070E+02 8.0866E-01
 1.4153E+02 8.0869E-01
 1.4237E+02 8.0868E-01
 1.4320E+02 8.0872E-01
 1.4403E+02 8.0867E-01
 1.4487E+02 8.0877E-01
 1.4570E+02 8.0869E-01
 1.4653E+02 8.0874E-01
 1.4737E+02 8.0875E-01
 1.4820E+02 8.0880E-01
 1.4904E+02 8.0880E-01
 1.4987E+02 8.0884E-01
 1.5070E+02 8.0882E-01
 1.5154E+02 8.0883E-01
 1.5237E+02 8.0885E-01
 1.5321E+02 8.0888E-01
 1.5404E+02 8.0893E-01
 1.5487E+02 8.0892E-01
 1.5571E+02 8.0889E-01
 1.5654E+02 8.0891E-01
 1.5738E+02 8.0895E-01
 1.5821E+02 8.0896E-01
 1.5904E+02 8.0898E-01
 1.5988E+02 8.0899E-01
 1.6071E+02 8.0901E-01
 1.6154E+02 8.0900E-01
 1.6238E+02 8.0906E-01
 1.6321E+02 8.0905E-01
 1.6405E+02 8.0907E-01
 1.6488E+02 8.0909E-01
 1.6571E+02 8.0913E-01
 1.6655E+02 8.0914E-01
