 7.5125E+03 0.0000E+00
 7.5250E+03 3.0264E-18
 7.5375E+03 2.6541E-18
 7.5500E+03 3.4107E-18
 7.5625E+03 2.9711E-18
 7.5750E+03 3.2275E-18
 7.5875E+03 2.6541E-18
 7.6000E+03 3.1356E-18
 7.6125E+03 3.2415E-18
 7.6250E+03 2.9664E-18
 7.6375E+03 3.0590E-18
 7.6500E+03 2.9558E-18
 7.6625E+03 2.9651E-18
 7.6750E+03 2.7566E-18
 7.6875E+03 2.8439E-18
 7.7000E+03 2.7387E-18
 7.7125E+03 3.2555E-18
 7.7250E+03 2.9791E-18
 7.7375E+03 2.8306E-18
 7.7500E+03 3.0410E-18
 7.7625E+03 2.6408E-18
 7.7750E+03 3.0810E-18
 7.7875E+03 2.5835E-18
 7.8000E+03 2.7493E-18
 7.8125E+03 2.7526E-18
 7.8250E+03 2.8845E-18
 7.8375E+03 2.8978E-18
 7.8500E+03 2.8232E-18
 7.8625E+03 3.1536E-18
 7.8750E+03 2.8872E-18
 7.8875E+03 3.0397E-18
 7.9000E+03 3.1223E-18
 7.9125E+03 2.6894E-18
 7.9250E+03 2.4703E-18
 7.9375E+03 2.6994E-18
 7.9500E+03 2.8366E-18
 7.9625E+03 2.6134E-18
 7.9750E+03 2.6141E-18
 7.9875E+03 3.0457E-18
 8.0000E+03 2.5615E-18
 8.0125E+03 2.8326E-18
 8.0250E+03 2.5340E-06
 8.0375E+03 2.5359E-06
 8.0500E+03 2.5378E-06
 8.0625E+03 2.5397E-06
 8.0750E+03 2.5416E-06
 8.0875E+03 2.5436E-06
 8.1000E+03 2.5455E-06
 8.1125E+03 2.5474E-06
 8.1250E+03 2.5494E-06
 8.1375E+03 2.5513E-06
 8.1500E+03 2.5532E-06
 8.1625E+03 2.5551E-06
 8.1750E+03 2.5571E-06
 8.1875E+03 2.5590E-06
 8.2000E+03 2.5609E-06
 8.2125E+03 2.5628E-06
 8.2250E+03 2.5648E-06
 8.2375E+03 2.5667E-06
 8.2500E+03 2.5687E-06
 8.2625E+03 2.5707E-06
 8.2750E+03 2.5726E-06
 8.2875E+03 2.5745E-06
 8.3000E+03 2.5765E-06
 8.3125E+03 2.5784E-06
 8.3250E+03 2.5803E-06
 8.3375E+03 2.5823E-06
 8.3500E+03 2.5842E-06
 8.3625E+03 2.5861E-06
 8.3750E+03 2.5881E-06
 8.3875E+03 2.5901E-06
 8.4000E+03 2.5921E-06
 8.4125E+03 2.5940E-06
 8.4250E+03 2.5959E-06
 8.4375E+03 2.5979E-06
 8.4500E+03 2.5998E-06
 8.4625E+03 2.6018E-06
 8.4750E+03 2.6037E-06
 8.4875E+03 2.6057E-06
 8.5000E+03 2.6076E-06
 8.5125E+03 2.6096E-06
 8.5250E+03 2.6116E-06
 8.5375E+03 2.6136E-06
 8.5500E+03 2.6155E-06
 8.5625E+03 2.6175E-06
 8.5750E+03 2.6194E-06
 8.5875E+03 2.6214E-06
 8.6000E+03 2.6233E-06
 8.6125E+03 2.6253E-06
 8.6250E+03 2.6273E-06
 8.6375E+03 2.6292E-06
 8.6500E+03 2.6312E-06
 8.6625E+03 2.6333E-06
 8.6750E+03 2.6352E-06
 8.6875E+03 2.6372E-06
 8.7000E+03 2.6392E-06
 8.7125E+03 2.6411E-06
 8.7250E+03 2.6431E-06
 8.7375E+03 2.6450E-06
 8.7500E+03 2.6470E-06
 8.7625E+03 2.6490E-06
 8.7750E+03 2.6510E-06
 8.7875E+03 2.6530E-06
 8.8000E+03 2.6550E-06
 8.8125E+03 2.6570E-06
 8.8250E+03 2.6590E-06
 8.8375E+03 2.6609E-06
 8.8500E+03 2.6629E-06
 8.8625E+03 2.6649E-06
 8.8750E+03 2.6669E-06
 8.8875E+03 2.6688E-06
 8.9000E+03 2.6708E-06
 8.9125E+03 2.6728E-06
 8.9250E+03 2.6749E-06
 8.9375E+03 2.6769E-06
 8.9500E+03 2.6788E-06
 8.9625E+03 2.6808E-06
 8.9750E+03 2.6828E-06
 8.9875E+03 2.6848E-06
 9.0000E+03 2.6868E-06
 9.0125E+03 2.6888E-06
 9.0250E+03 2.6907E-06
 9.0375E+03 2.6927E-06
 9.0500E+03 2.6947E-06
 9.0625E+03 2.6968E-06
 9.0750E+03 2.6988E-06
 9.0875E+03 2.7008E-06
 9.1000E+03 2.7028E-06
 9.1125E+03 2.7048E-06
 9.1250E+03 2.7068E-06
 9.1375E+03 2.7088E-06
 9.1500E+03 2.7107E-06
 9.1625E+03 2.7127E-06
 9.1750E+03 2.7147E-06
 9.1875E+03 2.7167E-06
 9.2000E+03 2.7188E-06
 9.2125E+03 2.7208E-06
 9.2250E+03 2.7228E-06
 9.2375E+03 2.7248E-06
 9.2500E+03 2.7268E-06
 9.2625E+03 2.7288E-06
 9.2750E+03 2.7308E-06
 9.2875E+03 2.7328E-06
 9.3000E+03 2.7348E-06
 9.3125E+03 2.7368E-06
 9.3250E+03 2.7389E-06
 9.3375E+03 2.7409E-06
 9.3500E+03 2.7429E-06
 9.3625E+03 2.7449E-06
 9.3750E+03 2.7469E-06
 9.3875E+03 2.7490E-06
 9.4000E+03 2.7510E-06
 9.4125E+03 2.7530E-06
 9.4250E+03 2.7550E-06
 9.4375E+03 2.7570E-06
 9.4500E+03 2.7590E-06
 9.4625E+03 2.7611E-06
 9.4750E+03 2.7631E-06
 9.4875E+03 2.7651E-06
 9.5000E+03 2.7671E-06
 9.5125E+03 2.7691E-06
 9.5250E+03 2.5961E-18
 9.5375E+03 2.1659E-18
 9.5500E+03 2.0973E-18
 9.5625E+03 1.8595E-18
 9.5750E+03 2.0400E-18
 9.5875E+03 2.0260E-18
 9.6000E+03 2.0646E-18
 9.6125E+03 2.2058E-18
 9.6250E+03 2.1892E-18
 9.6375E+03 2.0040E-18
 9.6500E+03 2.2045E-18
 9.6625E+03 2.1879E-18
 9.6750E+03 2.1912E-18
 9.6875E+03 2.3737E-18
 9.7000E+03 2.0600E-18
 9.7125E+03 2.4922E-18
 9.7250E+03 2.0174E-18
 9.7375E+03 2.0413E-18
 9.7500E+03 1.7270E-18
 9.7625E+03 2.0313E-18
 9.7750E+03 2.2605E-18
 9.7875E+03 2.0600E-18
 9.8000E+03 1.8668E-18
 9.8125E+03 2.1213E-18
 9.8250E+03 2.1945E-18
 9.8375E+03 2.3450E-18
 9.8500E+03 2.2292E-18
 9.8625E+03 1.9568E-18
 9.8750E+03 1.8036E-18
 9.8875E+03 1.5798E-18
 9.9000E+03 1.9960E-18
 9.9125E+03 1.9927E-18
 9.9250E+03 1.9401E-18
 9.9375E+03 1.9075E-18
 9.9500E+03 2.2272E-18
 9.9625E+03 2.0420E-18
 9.9750E+03 1.8995E-18
 9.9875E+03 2.0373E-18
 1.0000E+04 2.0207E-18
