 0.0000E+00 8.9606E-01
 3.7500E-01 8.9354E-01
 7.5000E-01 8.8936E-01
 1.1250E+00 8.8286E-01
 1.5000E+00 8.7404E-01
 1.8750E+00 8.6289E-01
 2.2500E+00 8.4953E-01
 2.6250E+00 8.3404E-01
 3.0000E+00 8.1655E-01
 3.3750E+00 7.9718E-01
 3.7500E+00 7.7610E-01
 4.1250E+00 7.5345E-01
 4.5000E+00 7.2942E-01
 4.8750E+00 7.0417E-01
 5.2500E+00 6.7789E-01
 5.6250E+00 6.5076E-01
 6.0000E+00 6.2296E-01
 6.3750E+00 5.9468E-01
 6.7500E+00 5.6609E-01
 7.1250E+00 5.3736E-01
 7.5000E+00 5.0866E-01
 7.8750E+00 4.8013E-01
 8.2500E+00 4.5194E-01
 8.6250E+00 4.2421E-01
 9.0000E+00 3.9706E-01
 9.3750E+00 3.7061E-01
 9.7500E+00 3.4495E-01
 1.0125E+01 3.2016E-01
 1.0500E+01 2.9632E-01
 1.0875E+01 2.7349E-01
 1.1250E+01 2.5171E-01
 1.1625E+01 2.3101E-01
 1.2000E+01 2.1142E-01
 1.2375E+01 1.9295E-01
 1.2750E+01 1.7559E-01
 1.3125E+01 1.5935E-01
 1.3500E+01 1.4421E-01
 1.3875E+01 1.3014E-01
 1.4250E+01 1.1711E-01
 1.4625E+01 1.0509E-01
 1.5000E+01 9.4039E-02
 1.5375E+01 8.3915E-02
 1.5750E+01 7.4671E-02
 1.6125E+01 6.6258E-02
 1.6500E+01 5.8629E-02
 1.6875E+01 5.1732E-02
 1.7250E+01 4.5519E-02
 1.7625E+01 3.9939E-02
 1.8000E+01 3.4945E-02
 1.8375E+01 3.0490E-02
 1.8750E+01 2.6528E-02
 1.9125E+01 2.3016E-02
 1.9500E+01 1.9914E-02
 1.9875E+01 1.7181E-02
 2.0250E+01 1.4781E-02
 2.0625E+01 1.2682E-02
 2.1000E+01 1.0849E-02
 2.1375E+01 9.2560E-03
 2.1750E+01 7.8745E-03
 2.2125E+01 6.6805E-03
 2.2500E+01 5.6516E-03
 2.2875E+01 4.7678E-03
 2.3250E+01 4.0109E-03
 2.3625E+01 3.3647E-03
 2.4000E+01 2.8147E-03
 2.4375E+01 2.3481E-03
 2.4750E+01 1.9533E-03
 2.5125E+01 1.6204E-03
 2.5500E+01 1.3405E-03
 2.5875E+01 1.1058E-03
 2.6250E+01 9.0967E-04
 2.6625E+01 7.4624E-04
 2.7000E+01 6.1045E-04
 2.7375E+01 4.9799E-04
 2.7750E+01 4.0511E-04
 2.8125E+01 3.2864E-04
 2.8500E+01 2.6585E-04
 2.8875E+01 2.1446E-04
 2.9250E+01 1.7253E-04
 2.9625E+01 1.3841E-04
 3.0000E+01 1.1073E-04
 3.0375E+01 8.8336E-05
 3.0750E+01 7.0280E-05
 3.1125E+01 5.5759E-05
 3.1500E+01 4.4120E-05
 3.1875E+01 3.4812E-05
 3.2250E+01 2.7393E-05
 3.2625E+01 2.1495E-05
 3.3000E+01 1.6820E-05
 3.3375E+01 1.3127E-05
 3.3750E+01 1.0214E-05
 3.4125E+01 7.9266E-06
 3.4500E+01 6.1363E-06
 3.4875E+01 4.7353E-06
 3.5250E+01 3.6449E-06
 3.5625E+01 2.7974E-06
 3.6000E+01 2.1426E-06
 3.6375E+01 1.6351E-06
 3.6750E+01 1.2453E-06
 3.7125E+01 9.4559E-07
 3.7500E+01 7.1623E-07
 3.7875E+01 5.4065E-07
 3.8250E+01 4.0760E-07
 3.8625E+01 3.0587E-07
 3.9000E+01 2.2921E-07
 3.9375E+01 1.7083E-07
 3.9750E+01 1.2755E-07
 4.0125E+01 9.4431E-08
 4.0500E+01 7.0139E-08
 4.0875E+01 5.1502E-08
 4.1250E+01 3.8050E-08
 4.1625E+01 2.7722E-08
 4.2000E+01 2.0313E-08
 4.2375E+01 1.4757E-08
 4.2750E+01 1.0695E-08
 4.3125E+01 7.6680E-09
 4.3500E+01 5.5072E-09
 4.3875E+01 3.9623E-09
 4.4250E+01 2.7884E-09
 4.4625E+01 1.9676E-09
 4.5000E+01 1.3857E-09
 4.5375E+01 9.5474E-10
 4.5750E+01 6.6409E-10
 4.6125E+01 4.4541E-10
 4.6500E+01 3.0446E-10
 4.6875E+01 1.9405E-10
 4.7250E+01 1.3225E-10
 4.7625E+01 7.1397E-11
 4.8000E+01 4.6579E-11
 4.8375E+01 2.8898E-11
 4.8750E+01 1.8241E-11
 4.9125E+01 1.3516E-11
 4.9500E+01 1.0874E-11
 4.9875E+01 1.1372E-11
 5.0250E+01 1.0708E-11
 5.0625E+01 1.3727E-11
 5.1000E+01 1.4556E-11
 5.1375E+01 1.5321E-11
 5.1750E+01 1.5821E-11
 5.2125E+01 1.6213E-11
 5.2500E+01 1.7567E-11
 5.2875E+01 1.8451E-11
 5.3250E+01 1.6377E-11
 5.3625E+01 2.0606E-11
 5.4000E+01 1.8006E-11
 5.4375E+01 1.9913E-11
 5.4750E+01 2.1037E-11
 5.5125E+01 2.1066E-11
 5.5500E+01 1.9872E-11
 5.5875E+01 1.9535E-11
 5.6250E+01 1.7872E-11
 5.6625E+01 1.5658E-11
 5.7000E+01 1.6518E-11
 5.7375E+01 1.3714E-11
 5.7750E+01 1.2915E-11
 5.8125E+01 1.4404E-11
 5.8500E+01 1.3831E-11
 5.8875E+01 1.4365E-11
 5.9250E+01 1.3717E-11
 5.9625E+01 1.3795E-11
 6.0000E+01 1.3894E-11
 6.0375E+01 1.2963E-11
 6.0750E+01 1.3352E-11
 6.1125E+01 1.3646E-11
 6.1500E+01 1.3459E-11
 6.1875E+01 1.1884E-11
 6.2250E+01 1.3831E-11
 6.2625E+01 1.1503E-11
 6.3000E+01 1.1706E-11
 6.3375E+01 1.0635E-11
 6.3750E+01 1.2375E-11
 6.4125E+01 1.0402E-11
 6.4500E+01 1.0339E-11
 6.4875E+01 1.0912E-11
 6.5250E+01 1.0217E-11
 6.5625E+01 1.1109E-11
 6.6000E+01 8.0684E-12
 6.6375E+01 1.0210E-11
 6.6750E+01 9.0240E-12
 6.7125E+01 9.1683E-12
 6.7500E+01 7.9993E-12
 6.7875E+01 7.3181E-12
 6.8250E+01 8.5787E-12
 6.8625E+01 7.3100E-12
 6.9000E+01 7.4720E-12
 6.9375E+01 7.8202E-12
 6.9750E+01 7.6482E-12
 7.0125E+01 7.9083E-12
 7.0500E+01 6.6148E-12
 7.0875E+01 8.1831E-12
 7.1250E+01 6.5653E-12
 7.1625E+01 6.9610E-12
 7.2000E+01 7.3226E-12
 7.2375E+01 5.1436E-12
 7.2750E+01 6.3954E-12
 7.3125E+01 5.1988E-12
 7.3500E+01 6.3058E-12
 7.3875E+01 5.0158E-12
 7.4250E+01 5.4998E-12
 7.4625E+01 5.6650E-12
 7.5000E+01 4.7724E-12
 7.5375E+01 5.4976E-12
 7.5750E+01 5.3208E-12
 7.6125E+01 5.6778E-12
 7.6500E+01 5.5962E-12
 7.6875E+01 5.4383E-12
 7.7250E+01 4.9264E-12
 7.7625E+01 5.6529E-12
 7.8000E+01 4.6151E-12
 7.8375E+01 4.7403E-12
 7.8750E+01 4.2559E-12
 7.9125E+01 3.2021E-12
 7.9500E+01 3.0429E-12
 7.9875E+01 2.6353E-12
 8.0250E+01 2.8847E-12
 8.0625E+01 2.4219E-12
 8.1000E+01 2.9498E-12
 8.1375E+01 3.4605E-12
 8.1750E+01 3.1754E-12
 8.2125E+01 3.5853E-12
 8.2500E+01 4.1344E-12
 8.2875E+01 4.4438E-12
 8.3250E+01 3.9810E-12
 8.3625E+01 3.6232E-12
 8.4000E+01 2.8546E-12
 8.4375E+01 2.4627E-12
 8.4750E+01 2.1622E-12
 8.5125E+01 1.9675E-12
 8.5500E+01 1.5855E-12
 8.5875E+01 1.2533E-12
 8.6250E+01 2.2226E-12
 8.6625E+01 2.2345E-12
 8.7000E+01 2.5536E-12
 8.7375E+01 3.7743E-12
 8.7750E+01 2.9665E-12
 8.8125E+01 3.8943E-12
 8.8500E+01 3.3161E-12
 8.8875E+01 2.8508E-12
 8.9250E+01 3.5904E-12
 8.9625E+01 1.5992E-12
 9.0000E+01 2.1597E-12
 9.0375E+01 1.7908E-12
 9.0750E+01 1.2447E-12
 9.1125E+01 1.6261E-12
 9.1500E+01 1.6847E-12
 9.1875E+01 1.9969E-12
 9.2250E+01 2.5270E-12
 9.2625E+01 2.8126E-12
 9.3000E+01 3.0694E-12
 9.3375E+01 3.2117E-12
 9.3750E+01 2.7775E-12
 9.4125E+01 3.3946E-12
 9.4500E+01 2.0914E-12
 9.4875E+01 2.2396E-12
 9.5250E+01 1.4375E-12
 9.5625E+01 1.0859E-12
 9.6000E+01 1.0956E-12
 9.6375E+01 1.1215E-12
 9.6750E+01 1.6308E-12
 9.7125E+01 1.4318E-12
 9.7500E+01 2.4516E-12
 9.7875E+01 1.8719E-12
 9.8250E+01 2.3316E-12
 9.8625E+01 2.4420E-12
 9.9000E+01 1.9588E-12
 9.9375E+01 2.4217E-12
 9.9750E+01 1.8070E-12
 1.0012E+02 1.8168E-12
 1.0050E+02 1.4970E-12
 1.0088E+02 1.3865E-12
 1.0125E+02 1.3406E-12
 1.0162E+02 1.1688E-12
 1.0200E+02 1.3514E-12
 1.0238E+02 1.9640E-12
 1.0275E+02 1.4952E-12
 1.0313E+02 2.1415E-12
 1.0350E+02 2.4618E-12
 1.0388E+02 2.2149E-12
 1.0425E+02 2.6178E-12
 1.0462E+02 2.1869E-12
 1.0500E+02 1.7875E-12
 1.0538E+02 1.5694E-12
 1.0575E+02 1.3314E-12
 1.0612E+02 1.1838E-12
 1.0650E+02 7.2276E-13
 1.0688E+02 8.0240E-13
 1.0725E+02 8.4022E-13
 1.0763E+02 1.0984E-12
 1.0800E+02 1.2652E-12
 1.0838E+02 1.2776E-12
 1.0875E+02 1.6256E-12
 1.0912E+02 1.8585E-12
 1.0950E+02 1.9659E-12
 1.0988E+02 1.1952E-12
 1.1025E+02 2.0025E-12
 1.1062E+02 8.0522E-13
 1.1100E+02 1.3926E-12
 1.1138E+02 7.7819E-13
 1.1175E+02 4.1877E-13
 1.1212E+02 9.8943E-13
 1.1250E+02 7.0762E-13
 1.1288E+02 5.9940E-13
 1.1325E+02 1.0894E-12
 1.1363E+02 1.0643E-12
 1.1400E+02 1.1202E-12
 1.1438E+02 1.4751E-12
 1.1475E+02 1.5121E-12
 1.1512E+02 1.1231E-12
 1.1550E+02 1.4326E-12
 1.1588E+02 6.1067E-13
 1.1625E+02 7.8551E-13
 1.1662E+02 7.9493E-13
 1.1700E+02 4.7542E-13
 1.1738E+02 5.0999E-13
 1.1775E+02 6.0802E-13
 1.1813E+02 5.5679E-13
 1.1850E+02 4.3376E-13
 1.1888E+02 1.0344E-12
 1.1925E+02 7.1981E-13
 1.1962E+02 1.2160E-12
 1.2000E+02 1.0218E-12
 1.2038E+02 9.8602E-13
 1.2075E+02 1.1143E-12
 1.2112E+02 7.5491E-13
 1.2150E+02 1.1123E-12
 1.2188E+02 6.5586E-13
 1.2225E+02 5.2546E-13
 1.2263E+02 2.9452E-13
 1.2300E+02 2.4976E-13
 1.2338E+02 1.9365E-13
 1.2375E+02 1.5287E-13
 1.2412E+02 4.1633E-13
 1.2450E+02 5.3043E-13
 1.2488E+02 7.8305E-13
 1.2525E+02 8.7318E-13
 1.2562E+02 1.3888E-12
 1.2600E+02 1.1092E-12
 1.2638E+02 1.1186E-12
 1.2675E+02 8.9979E-13
 1.2712E+02 6.9077E-13
 1.2750E+02 5.5148E-13
 1.2788E+02 3.6883E-13
 1.2825E+02 3.3611E-13
 1.2862E+02 2.7964E-13
 1.2900E+02 1.8861E-13
 1.2938E+02 5.8214E-13
 1.2975E+02 3.9317E-13
 1.3012E+02 8.9557E-13
 1.3050E+02 1.0075E-12
 1.3088E+02 1.0540E-12
 1.3125E+02 9.5333E-13
 1.3163E+02 9.3165E-13
 1.3200E+02 1.2346E-12
 1.3238E+02 7.0162E-13
 1.3275E+02 5.0438E-13
 1.3312E+02 2.7292E-13
 1.3350E+02 1.3247E-13
 1.3388E+02 5.2281E-14
 1.3425E+02 7.7689E-14
 1.3462E+02 3.0494E-13
 1.3500E+02 2.7214E-13
 1.3538E+02 5.1593E-13
 1.3575E+02 7.1876E-13
 1.3613E+02 8.8803E-13
 1.3650E+02 8.2725E-13
 1.3688E+02 5.0425E-13
 1.3725E+02 7.9804E-13
 1.3762E+02 3.8008E-13
 1.3800E+02 4.3472E-13
 1.3838E+02 2.0471E-13
 1.3875E+02 1.1030E-13
 1.3912E+02 1.2055E-13
 1.3950E+02 1.4365E-13
 1.3988E+02 1.9143E-13
 1.4025E+02 2.3831E-13
 1.4063E+02 2.2214E-13
 1.4100E+02 3.2039E-13
 1.4138E+02 3.5523E-13
 1.4175E+02 5.4740E-13
 1.4212E+02 4.4773E-13
 1.4250E+02 4.1311E-13
 1.4288E+02 6.1432E-13
 1.4325E+02 1.4802E-13
 1.4362E+02 4.2878E-13
 1.4400E+02 3.5536E-13
 1.4438E+02 8.5561E-14
 1.4475E+02 1.1115E-13
 1.4512E+02 4.2269E-14
 1.4550E+02 1.4826E-14
 1.4588E+02 1.0467E-14
 1.4625E+02 3.3671E-15
 1.4662E+02 4.2844E-16
 1.4700E+02 1.5535E-17
 1.4738E+02 1.8236E-19
 1.4775E+02 7.4862E-19
 1.4812E+02 2.9879E-19
 1.4850E+02 7.1207E-20
 1.4888E+02 1.7966E-20
 1.4925E+02 6.3744E-21
 1.4962E+02 2.9263E-21
 1.5000E+02 1.1627E-21
