 0.0000E+00 1.1952E-01
 3.7500E-01 1.1948E-01
 7.5000E-01 1.1940E-01
 1.1250E+00 1.1929E-01
 1.5000E+00 1.1913E-01
 1.8750E+00 1.1892E-01
 2.2500E+00 1.1868E-01
 2.6250E+00 1.1839E-01
 3.0000E+00 1.1805E-01
 3.3750E+00 1.1767E-01
 3.7500E+00 1.1725E-01
 4.1250E+00 1.1679E-01
 4.5000E+00 1.1629E-01
 4.8750E+00 1.1574E-01
 5.2500E+00 1.1516E-01
 5.6250E+00 1.1453E-01
 6.0000E+00 1.1386E-01
 6.3750E+00 1.1316E-01
 6.7500E+00 1.1242E-01
 7.1250E+00 1.1164E-01
 7.5000E+00 1.1082E-01
 7.8750E+00 1.0997E-01
 8.2500E+00 1.0909E-01
 8.6250E+00 1.0817E-01
 9.0000E+00 1.0722E-01
 9.3750E+00 1.0623E-01
 9.7500E+00 1.0522E-01
 1.0125E+01 1.0418E-01
 1.0500E+01 1.0311E-01
 1.0875E+01 1.0201E-01
 1.1250E+01 1.0088E-01
 1.1625E+01 9.9734E-02
 1.2000E+01 9.8560E-02
 1.2375E+01 9.7364E-02
 1.2750E+01 9.6145E-02
 1.3125E+01 9.4907E-02
 1.3500E+01 9.3648E-02
 1.3875E+01 9.2373E-02
 1.4250E+01 9.1080E-02
 1.4625E+01 8.9772E-02
 1.5000E+01 8.8449E-02
 1.5375E+01 8.7113E-02
 1.5750E+01 8.5765E-02
 1.6125E+01 8.4406E-02
 1.6500E+01 8.3037E-02
 1.6875E+01 8.1659E-02
 1.7250E+01 8.0275E-02
 1.7625E+01 7.8883E-02
 1.8000E+01 7.7488E-02
 1.8375E+01 7.6088E-02
 1.8750E+01 7.4685E-02
 1.9125E+01 7.3279E-02
 1.9500E+01 7.1875E-02
 1.9875E+01 7.0470E-02
 2.0250E+01 6.9066E-02
 2.0625E+01 6.7665E-02
 2.1000E+01 6.6268E-02
 2.1375E+01 6.4875E-02
 2.1750E+01 6.3488E-02
 2.2125E+01 6.2105E-02
 2.2500E+01 6.0732E-02
 2.2875E+01 5.9365E-02
 2.3250E+01 5.8008E-02
 2.3625E+01 5.6661E-02
 2.4000E+01 5.5323E-02
 2.4375E+01 5.3998E-02
 2.4750E+01 5.2684E-02
 2.5125E+01 5.1382E-02
 2.5500E+01 5.0094E-02
 2.5875E+01 4.8820E-02
 2.6250E+01 4.7560E-02
 2.6625E+01 4.6316E-02
 2.7000E+01 4.5086E-02
 2.7375E+01 4.3873E-02
 2.7750E+01 4.2677E-02
 2.8125E+01 4.1497E-02
 2.8500E+01 4.0335E-02
 2.8875E+01 3.9190E-02
 2.9250E+01 3.8064E-02
 2.9625E+01 3.6956E-02
 3.0000E+01 3.5866E-02
 3.0375E+01 3.4796E-02
 3.0750E+01 3.3745E-02
 3.1125E+01 3.2713E-02
 3.1500E+01 3.1701E-02
 3.1875E+01 3.0709E-02
 3.2250E+01 2.9736E-02
 3.2625E+01 2.8783E-02
 3.3000E+01 2.7851E-02
 3.3375E+01 2.6938E-02
 3.3750E+01 2.6045E-02
 3.4125E+01 2.5173E-02
 3.4500E+01 2.4320E-02
 3.4875E+01 2.3488E-02
 3.5250E+01 2.2675E-02
 3.5625E+01 2.1883E-02
 3.6000E+01 2.1110E-02
 3.6375E+01 2.0356E-02
 3.6750E+01 1.9622E-02
 3.7125E+01 1.8908E-02
 3.7500E+01 1.8212E-02
 3.7875E+01 1.7536E-02
 3.8250E+01 1.6878E-02
 3.8625E+01 1.6238E-02
 3.9000E+01 1.5617E-02
 3.9375E+01 1.5014E-02
 3.9750E+01 1.4429E-02
 4.0125E+01 1.3862E-02
 4.0500E+01 1.3311E-02
 4.0875E+01 1.2778E-02
 4.1250E+01 1.2261E-02
 4.1625E+01 1.1761E-02
 4.2000E+01 1.1277E-02
 4.2375E+01 1.0809E-02
 4.2750E+01 1.0356E-02
 4.3125E+01 9.9187E-03
 4.3500E+01 9.4961E-03
 4.3875E+01 9.0880E-03
 4.4250E+01 8.6942E-03
 4.4625E+01 8.3143E-03
 4.5000E+01 7.9480E-03
 4.5375E+01 7.5949E-03
 4.5750E+01 7.2547E-03
 4.6125E+01 6.9272E-03
 4.6500E+01 6.6120E-03
 4.6875E+01 6.3086E-03
 4.7250E+01 6.0169E-03
 4.7625E+01 5.7365E-03
 4.8000E+01 5.4670E-03
 4.8375E+01 5.2083E-03
 4.8750E+01 4.9598E-03
 4.9125E+01 4.7215E-03
 4.9500E+01 4.4929E-03
 4.9875E+01 4.2738E-03
 5.0250E+01 4.0638E-03
 5.0625E+01 3.8626E-03
 5.1000E+01 3.6699E-03
 5.1375E+01 3.4857E-03
 5.1750E+01 3.3093E-03
 5.2125E+01 3.1407E-03
 5.2500E+01 2.9796E-03
 5.2875E+01 2.8257E-03
 5.3250E+01 2.6786E-03
 5.3625E+01 2.5383E-03
 5.4000E+01 2.4045E-03
 5.4375E+01 2.2767E-03
 5.4750E+01 2.1550E-03
 5.5125E+01 2.0390E-03
 5.5500E+01 1.9286E-03
 5.5875E+01 1.8233E-03
 5.6250E+01 1.7232E-03
 5.6625E+01 1.6279E-03
 5.7000E+01 1.5374E-03
 5.7375E+01 1.4513E-03
 5.7750E+01 1.3695E-03
 5.8125E+01 1.2918E-03
 5.8500E+01 1.2180E-03
 5.8875E+01 1.1480E-03
 5.9250E+01 1.0817E-03
 5.9625E+01 1.0187E-03
 6.0000E+01 9.5914E-04
 6.0375E+01 9.0262E-04
 6.0750E+01 8.4918E-04
 6.1125E+01 7.9852E-04
 6.1500E+01 7.5066E-04
 6.1875E+01 7.0539E-04
 6.2250E+01 6.6258E-04
 6.2625E+01 6.2218E-04
 6.3000E+01 5.8396E-04
 6.3375E+01 5.4792E-04
 6.3750E+01 5.1386E-04
 6.4125E+01 4.8180E-04
 6.4500E+01 4.5152E-04
 6.4875E+01 4.2301E-04
 6.5250E+01 3.9613E-04
 6.5625E+01 3.7082E-04
 6.6000E+01 3.4700E-04
 6.6375E+01 3.2459E-04
 6.6750E+01 3.0347E-04
 6.7125E+01 2.8366E-04
 6.7500E+01 2.6502E-04
 6.7875E+01 2.4752E-04
 6.8250E+01 2.3107E-04
 6.8625E+01 2.1564E-04
 6.9000E+01 2.0115E-04
 6.9375E+01 1.8758E-04
 6.9750E+01 1.7485E-04
 7.0125E+01 1.6292E-04
 7.0500E+01 1.5175E-04
 7.0875E+01 1.4130E-04
 7.1250E+01 1.3152E-04
 7.1625E+01 1.2235E-04
 7.2000E+01 1.1380E-04
 7.2375E+01 1.0579E-04
 7.2750E+01 9.8313E-05
 7.3125E+01 9.1335E-05
 7.3500E+01 8.4813E-05
 7.3875E+01 7.8733E-05
 7.4250E+01 7.3057E-05
 7.4625E+01 6.7765E-05
 7.5000E+01 6.2835E-05
 7.5375E+01 5.8234E-05
 7.5750E+01 5.3962E-05
 7.6125E+01 4.9971E-05
 7.6500E+01 4.6261E-05
 7.6875E+01 4.2812E-05
 7.7250E+01 3.9601E-05
 7.7625E+01 3.6619E-05
 7.8000E+01 3.3851E-05
 7.8375E+01 3.1274E-05
 7.8750E+01 2.8886E-05
 7.9125E+01 2.6669E-05
 7.9500E+01 2.4612E-05
 7.9875E+01 2.2706E-05
 8.0250E+01 2.0937E-05
 8.0625E+01 1.9304E-05
 8.1000E+01 1.7790E-05
 8.1375E+01 1.6388E-05
 8.1750E+01 1.5089E-05
 8.2125E+01 1.3893E-05
 8.2500E+01 1.2784E-05
 8.2875E+01 1.1758E-05
 8.3250E+01 1.0811E-05
 8.3625E+01 9.9372E-06
 8.4000E+01 9.1294E-06
 8.4375E+01 8.3837E-06
 8.4750E+01 7.6954E-06
 8.5125E+01 7.0625E-06
 8.5500E+01 6.4785E-06
 8.5875E+01 5.9389E-06
 8.6250E+01 5.4425E-06
 8.6625E+01 4.9856E-06
 8.7000E+01 4.5650E-06
 8.7375E+01 4.1783E-06
 8.7750E+01 3.8231E-06
 8.8125E+01 3.4978E-06
 8.8500E+01 3.1985E-06
 8.8875E+01 2.9224E-06
 8.9250E+01 2.6697E-06
 8.9625E+01 2.4386E-06
 9.0000E+01 2.2266E-06
 9.0375E+01 2.0327E-06
 9.0750E+01 1.8537E-06
 9.1125E+01 1.6907E-06
 9.1500E+01 1.5424E-06
 9.1875E+01 1.4054E-06
 9.2250E+01 1.2804E-06
 9.2625E+01 1.1654E-06
 9.3000E+01 1.0603E-06
 9.3375E+01 9.6502E-07
 9.3750E+01 8.7724E-07
 9.4125E+01 7.9776E-07
 9.4500E+01 7.2480E-07
 9.4875E+01 6.5786E-07
 9.5250E+01 5.9705E-07
 9.5625E+01 5.4162E-07
 9.6000E+01 4.9079E-07
 9.6375E+01 4.4494E-07
 9.6750E+01 4.0298E-07
 9.7125E+01 3.6479E-07
 9.7500E+01 3.2994E-07
 9.7875E+01 2.9850E-07
 9.8250E+01 2.6998E-07
 9.8625E+01 2.4418E-07
 9.9000E+01 2.2062E-07
 9.9375E+01 1.9961E-07
 9.9750E+01 1.8011E-07
 1.0012E+02 1.6244E-07
 1.0050E+02 1.4666E-07
 1.0088E+02 1.3250E-07
 1.0125E+02 1.1955E-07
 1.0162E+02 1.0796E-07
 1.0200E+02 9.7049E-08
 1.0238E+02 8.7383E-08
 1.0275E+02 7.8534E-08
 1.0313E+02 7.0737E-08
 1.0350E+02 6.3602E-08
 1.0388E+02 5.6998E-08
 1.0425E+02 5.1125E-08
 1.0462E+02 4.5834E-08
 1.0500E+02 4.1040E-08
 1.0538E+02 3.6748E-08
 1.0575E+02 3.3025E-08
 1.0612E+02 2.9528E-08
 1.0650E+02 2.6326E-08
 1.0688E+02 2.3549E-08
 1.0725E+02 2.1078E-08
 1.0763E+02 1.8879E-08
 1.0800E+02 1.6936E-08
 1.0838E+02 1.5153E-08
 1.0875E+02 1.3546E-08
 1.0912E+02 1.2212E-08
 1.0950E+02 1.0861E-08
 1.0988E+02 9.8136E-09
 1.1025E+02 8.7246E-09
 1.1062E+02 7.8259E-09
 1.1100E+02 6.9985E-09
 1.1138E+02 6.2376E-09
 1.1175E+02 5.6177E-09
 1.1212E+02 4.9463E-09
 1.1250E+02 4.4154E-09
 1.1288E+02 3.9055E-09
 1.1325E+02 3.4426E-09
 1.1363E+02 3.0730E-09
 1.1400E+02 2.7053E-09
 1.1438E+02 2.3890E-09
 1.1475E+02 2.1166E-09
 1.1512E+02 1.8593E-09
 1.1550E+02 1.6588E-09
 1.1588E+02 1.4852E-09
 1.1625E+02 1.3004E-09
 1.1662E+02 1.1806E-09
 1.1700E+02 1.0664E-09
 1.1738E+02 9.7576E-10
 1.1775E+02 8.8121E-10
 1.1813E+02 7.8722E-10
 1.1850E+02 7.1046E-10
 1.1888E+02 6.5508E-10
 1.1925E+02 5.8670E-10
 1.1962E+02 5.2712E-10
 1.2000E+02 4.8658E-10
 1.2038E+02 4.3765E-10
 1.2075E+02 3.8057E-10
 1.2112E+02 3.4685E-10
 1.2150E+02 3.0311E-10
 1.2188E+02 2.6509E-10
 1.2225E+02 2.3241E-10
 1.2263E+02 1.9378E-10
 1.2300E+02 1.7129E-10
 1.2338E+02 1.5395E-10
 1.2375E+02 1.3569E-10
 1.2412E+02 1.2385E-10
 1.2450E+02 1.1472E-10
 1.2488E+02 1.0657E-10
 1.2525E+02 9.3857E-11
 1.2562E+02 8.7699E-11
 1.2600E+02 8.4042E-11
 1.2638E+02 7.9340E-11
 1.2675E+02 7.5940E-11
 1.2712E+02 7.0430E-11
 1.2750E+02 6.8906E-11
 1.2788E+02 5.6180E-11
 1.2825E+02 4.9841E-11
 1.2862E+02 4.8884E-11
 1.2900E+02 4.1064E-11
 1.2938E+02 3.6624E-11
 1.2975E+02 2.8447E-11
 1.3012E+02 2.1169E-11
 1.3050E+02 2.1414E-11
 1.3088E+02 1.8248E-11
 1.3125E+02 1.2295E-11
 1.3163E+02 1.0938E-11
 1.3200E+02 7.0706E-12
 1.3238E+02 6.0512E-12
 1.3275E+02 5.2555E-12
 1.3312E+02 2.6607E-12
 1.3350E+02 2.7517E-12
 1.3388E+02 3.2672E-12
 1.3425E+02 3.0930E-12
 1.3462E+02 3.5935E-12
 1.3500E+02 4.0094E-12
 1.3538E+02 4.1060E-12
 1.3575E+02 4.6074E-12
 1.3613E+02 4.5864E-12
 1.3650E+02 4.1449E-12
 1.3688E+02 3.7144E-12
 1.3725E+02 4.4097E-12
 1.3762E+02 2.9545E-12
 1.3800E+02 3.4257E-12
 1.3838E+02 3.7611E-12
 1.3875E+02 2.8193E-12
 1.3912E+02 3.2734E-12
 1.3950E+02 2.2654E-12
 1.3988E+02 2.2876E-12
 1.4025E+02 2.3727E-12
 1.4063E+02 2.6579E-12
 1.4100E+02 1.9010E-12
 1.4138E+02 1.4944E-12
 1.4175E+02 2.3441E-12
 1.4212E+02 1.4630E-12
 1.4250E+02 1.3342E-12
 1.4288E+02 9.6269E-13
 1.4325E+02 1.2145E-12
 1.4362E+02 1.1519E-12
 1.4400E+02 5.0248E-13
 1.4438E+02 2.0689E-13
 1.4475E+02 1.6276E-13
 1.4512E+02 1.1914E-13
 1.4550E+02 2.1367E-14
 1.4588E+02 8.2037E-15
 1.4625E+02 7.2175E-15
 1.4662E+02 1.3237E-15
 1.4700E+02 1.9357E-17
 1.4738E+02 2.3971E-17
 1.4775E+02 2.2458E-17
 1.4812E+02 8.0977E-18
 1.4850E+02 1.8973E-18
 1.4888E+02 3.3842E-19
 1.4925E+02 5.0624E-20
 1.4962E+02 6.7910E-21
 1.5000E+02 1.1024E-21
