-4.9000E+02 0.0000E+00
-4.8000E+02 1.1183E-05
-4.7000E+02 1.1539E-05
-4.6000E+02 1.1892E-05
-4.5000E+02 1.2249E-05
-4.4000E+02 1.2601E-05
-4.3000E+02 1.2960E-05
-4.2000E+02 1.3299E-05
-4.1000E+02 1.3525E-05
-4.0000E+02 1.3743E-05
-3.9000E+02 1.4431E-05
-3.8000E+02 1.6615E-02
-3.7000E+02 2.0392E-02
-3.6000E+02 2.4978E-02
-3.5000E+02 3.0534E-02
-3.4000E+02 3.7246E-02
-3.3000E+02 4.5325E-02
-3.2000E+02 5.5012E-02
-3.1000E+02 6.6571E-02
-3.0000E+02 8.0287E-02
-2.9000E+02 9.6454E-02
-2.8000E+02 1.1536E-01
-2.7000E+02 1.3728E-01
-2.6000E+02 1.6243E-01
-2.5000E+02 1.9094E-01
-2.4000E+02 2.2283E-01
-2.3000E+02 2.5798E-01
-2.2000E+02 2.9611E-01
-2.1000E+02 3.3675E-01
-2.0000E+02 3.7926E-01
-1.9000E+02 4.2287E-01
-1.8000E+02 4.6675E-01
-1.7000E+02 5.1004E-01
-1.6000E+02 5.5191E-01
-1.5000E+02 5.9169E-01
-1.4000E+02 6.2880E-01
-1.3000E+02 6.6287E-01
-1.2000E+02 6.9368E-01
-1.1000E+02 7.2118E-01
-1.0000E+02 7.4544E-01
-9.0000E+01 7.6661E-01
-8.0000E+01 7.8531E-01
-7.0000E+01 8.0203E-01
-6.0000E+01 8.1697E-01
-5.0000E+01 8.3041E-01
-4.0000E+01 8.4275E-01
-3.0000E+01 8.5430E-01
-2.0000E+01 8.6535E-01
-1.0000E+01 8.7610E-01
 0.0000E+00 8.8679E-01
 1.0000E+01 8.9757E-01
 2.0000E+01 9.0869E-01
 3.0000E+01 9.2016E-01
 4.0000E+01 9.3237E-01
 5.0000E+01 9.4496E-01
 6.0000E+01 9.5808E-01
 7.0000E+01 9.7118E-01
 8.0000E+01 9.8611E-01
 9.0000E+01 1.0034E+00
 1.0000E+02 1.0236E+00
 1.1000E+02 1.0448E+00
 1.2000E+02 1.0661E+00
 1.3000E+02 1.0873E+00
 1.4000E+02 1.1081E+00
 1.5000E+02 1.1291E+00
 1.6000E+02 1.1516E+00
 1.7000E+02 1.1752E+00
 1.8000E+02 1.1998E+00
 1.9000E+02 1.2254E+00
 2.0000E+02 1.2523E+00
 2.1000E+02 1.2775E+00
 2.2000E+02 1.2960E+00
 2.3000E+02 1.2985E+00
 2.4000E+02 1.2818E+00
 2.5000E+02 1.2381E+00
 2.6000E+02 1.1503E+00
 2.7000E+02 1.0365E+00
 2.8000E+02 1.0322E+00
 2.9000E+02 9.8423E-01
 3.0000E+02 9.0601E-01
 3.1000E+02 9.1820E-01
 3.2000E+02 9.2477E-01
 3.3000E+02 9.0229E-01
 3.4000E+02 8.7632E-01
 3.5000E+02 8.9578E-01
 3.6000E+02 9.6050E-01
 3.7000E+02 9.2790E-01
 3.8000E+02 9.4328E-01
 3.9000E+02 9.9452E-01
 4.0000E+02 9.8077E-01
 4.1000E+02 1.0292E+00
 4.2000E+02 1.0387E+00
 4.3000E+02 1.0219E+00
 4.4000E+02 1.0654E+00
 4.5000E+02 1.0608E+00
 4.6000E+02 1.0535E+00
 4.7000E+02 1.0693E+00
 4.8000E+02 1.0582E+00
 4.9000E+02 1.0592E+00
 5.0000E+02 1.0647E+00
 5.1000E+02 1.0518E+00
 5.2000E+02 1.0598E+00
 5.3000E+02 1.0593E+00
 5.4000E+02 1.0435E+00
 5.5000E+02 1.0401E+00
 5.6000E+02 1.0337E+00
 5.7000E+02 1.0116E+00
 5.8000E+02 1.0148E+00
 5.9000E+02 9.7682E-01
 6.0000E+02 9.4981E-01
 6.1000E+02 9.5333E-01
 6.2000E+02 8.9332E-01
 6.3000E+02 8.9188E-01
 6.4000E+02 8.8043E-01
 6.5000E+02 8.3612E-01
 6.6000E+02 8.6063E-01
 6.7000E+02 8.2921E-01
 6.8000E+02 8.3832E-01
 6.9000E+02 8.4767E-01
 7.0000E+02 8.2782E-01
 7.1000E+02 8.6184E-01
 7.2000E+02 8.3759E-01
 7.3000E+02 8.6436E-01
 7.4000E+02 8.7971E-01
 7.5000E+02 8.5801E-01
 7.6000E+02 8.9768E-01
 7.7000E+02 8.7659E-01
 7.8000E+02 8.9742E-01
 7.9000E+02 8.9864E-01
 8.0000E+02 8.6969E-01
 8.1000E+02 9.1203E-01
 8.2000E+02 8.6970E-01
 8.3000E+02 8.8778E-01
 8.4000E+02 8.7319E-01
 8.5000E+02 8.3783E-01
 8.6000E+02 9.0696E-01
 8.7000E+02 8.0552E-01
 8.8000E+02 8.3641E-01
 8.9000E+02 8.4903E-01
 9.0000E+02 7.4827E-01
 9.1000E+02 8.4731E-01
 9.2000E+02 7.5941E-01
 9.3000E+02 8.8681E-01
 9.4000E+02 8.7284E-01
 9.5000E+02 7.7598E-01
 9.6000E+02 6.9226E-01
 9.7000E+02 6.1405E-01
 9.8000E+02 5.5008E-01
 9.9000E+02 4.8071E-01
 1.0000E+03 4.1512E-01
 1.0100E+03 3.6304E-01
 1.0200E+03 3.0526E-01
 1.0300E+03 2.5782E-01
 1.0400E+03 2.1786E-01
 1.0500E+03 1.8055E-01
 1.0600E+03 1.5031E-01
 1.0700E+03 1.2276E-01
 1.0800E+03 1.0165E-01
 1.0900E+03 8.4546E-02
 1.1000E+03 6.8917E-02
 1.1100E+03 5.6303E-02
 1.1200E+03 4.5486E-02
 1.1300E+03 3.7501E-02
 1.1400E+03 3.1029E-02
 1.1500E+03 2.4803E-02
 1.1600E+03 1.9733E-02
 1.1700E+03 1.5855E-02
 1.1800E+03 1.2914E-02
 1.1900E+03 1.0737E-02
 1.2000E+03 8.5952E-03
 1.2100E+03 6.5742E-03
 1.2200E+03 9.1019E-04
 1.2300E+03 7.8539E-04
 1.2400E+03 2.8848E-04
 1.2500E+03 5.5554E-04
 1.2600E+03 6.6592E-04
 1.2700E+03 7.2071E-04
 1.2800E+03 4.0929E-04
 1.2900E+03 5.0940E-04
 1.3000E+03 6.1629E-04
 1.3100E+03 6.1503E-04
 1.3200E+03 5.1342E-04
 1.3300E+03 4.4536E-04
 1.3400E+03 5.2298E-04
 1.3500E+03 5.9283E-04
 1.3600E+03 5.1669E-04
 1.3700E+03 3.2511E-04
 1.3800E+03 3.9991E-04
 1.3900E+03 5.3645E-04
 1.4000E+03 5.2441E-04
 1.4100E+03 3.9453E-04
 1.4200E+03 1.5444E-04
 1.4300E+03 4.4165E-04
 1.4400E+03 4.9316E-04
 1.4500E+03 4.3011E-04
 1.4600E+03 2.4156E-04
 1.4700E+03 2.4964E-04
 1.4800E+03 4.5711E-04
 1.4900E+03 4.1787E-04
 1.5000E+03 3.1367E-04
