-4.9000E+02 7.1160E-01
-4.8000E+02 7.2011E-01
-4.7000E+02 7.3261E-01
-4.6000E+02 7.4197E-01
-4.5000E+02 7.5060E-01
-4.4000E+02 7.5935E-01
-4.3000E+02 7.6783E-01
-4.2000E+02 7.7665E-01
-4.1000E+02 7.8511E-01
-4.0000E+02 7.9370E-01
-3.9000E+02 8.0225E-01
-3.8000E+02 8.1061E-01
-3.7000E+02 8.1913E-01
-3.6000E+02 8.2740E-01
-3.5000E+02 8.3572E-01
-3.4000E+02 8.4396E-01
-3.3000E+02 8.5204E-01
-3.2000E+02 8.6017E-01
-3.1000E+02 8.6807E-01
-3.0000E+02 8.7595E-01
-2.9000E+02 8.8371E-01
-2.8000E+02 8.9129E-01
-2.7000E+02 8.9885E-01
-2.6000E+02 9.0615E-01
-2.5000E+02 9.1339E-01
-2.4000E+02 9.2044E-01
-2.3000E+02 9.2729E-01
-2.2000E+02 9.3404E-01
-2.1000E+02 9.4051E-01
-2.0000E+02 9.4685E-01
-1.9000E+02 9.5297E-01
-1.8000E+02 9.5884E-01
-1.7000E+02 9.6455E-01
-1.6000E+02 9.6995E-01
-1.5000E+02 9.7517E-01
-1.4000E+02 9.8012E-01
-1.3000E+02 9.8478E-01
-1.2000E+02 9.8923E-01
-1.1000E+02 9.9334E-01
-1.0000E+02 9.9722E-01
-9.0000E+01 1.0008E+00
-8.0000E+01 1.0057E+00
-7.0000E+01 1.0129E+00
-6.0000E+01 1.0223E+00
-5.0000E+01 1.0345E+00
-4.0000E+01 1.0496E+00
-3.0000E+01 1.0677E+00
-2.0000E+01 1.0894E+00
-1.0000E+01 1.1149E+00
 0.0000E+00 1.1447E+00
 1.0000E+01 1.1793E+00
 2.0000E+01 1.2193E+00
 3.0000E+01 1.2653E+00
 4.0000E+01 1.3194E+00
 5.0000E+01 1.3846E+00
 6.0000E+01 1.4621E+00
 7.0000E+01 1.5289E+00
 8.0000E+01 1.5609E+00
 9.0000E+01 1.6334E+00
 1.0000E+02 1.8822E+00
 1.1000E+02 2.2550E+00
 1.2000E+02 2.5128E+00
 1.3000E+02 2.6292E+00
 1.4000E+02 2.8300E+00
 1.5000E+02 3.1184E+00
 1.6000E+02 3.3351E+00
 1.7000E+02 3.6053E+00
 1.8000E+02 4.0912E+00
 1.9000E+02 4.7017E+00
 2.0000E+02 5.2635E+00
 2.1000E+02 5.7909E+00
 2.2000E+02 7.1084E+00
 2.3000E+02 1.0118E+01
 2.4000E+02 1.4146E+01
 2.5000E+02 1.9059E+01
 2.6000E+02 2.6598E+01
 2.7000E+02 3.7279E+01
 2.8000E+02 5.1480E+01
 2.9000E+02 6.6226E+01
 3.0000E+02 7.5216E+01
 3.1000E+02 7.8398E+01
 3.2000E+02 7.9687E+01
 3.3000E+02 7.8314E+01
 3.4000E+02 7.3463E+01
 3.5000E+02 6.7402E+01
 3.6000E+02 6.3452E+01
 3.7000E+02 6.0359E+01
 3.8000E+02 5.6902E+01
 3.9000E+02 5.3847E+01
 4.0000E+02 5.0417E+01
 4.1000E+02 4.7644E+01
 4.2000E+02 4.4023E+01
 4.3000E+02 3.9290E+01
 4.4000E+02 3.6139E+01
 4.5000E+02 3.2493E+01
 4.6000E+02 2.8536E+01
 4.7000E+02 2.5970E+01
 4.8000E+02 2.2698E+01
 4.9000E+02 2.0104E+01
 5.0000E+02 1.9633E+01
 5.1000E+02 1.9098E+01
 5.2000E+02 1.8649E+01
 5.3000E+02 1.9478E+01
 5.4000E+02 2.1275E+01
 5.5000E+02 2.3678E+01
 5.6000E+02 2.6996E+01
 5.7000E+02 3.0326E+01
 5.8000E+02 3.4381E+01
 5.9000E+02 3.9508E+01
 6.0000E+02 4.2926E+01
 6.1000E+02 4.6587E+01
 6.2000E+02 5.0345E+01
 6.3000E+02 5.1778E+01
 6.4000E+02 5.4187E+01
 6.5000E+02 5.5545E+01
 6.6000E+02 5.5214E+01
 6.7000E+02 5.5710E+01
 6.8000E+02 5.5360E+01
 6.9000E+02 5.4757E+01
 7.0000E+02 5.4250E+01
 7.1000E+02 5.3004E+01
 7.2000E+02 5.0665E+01
 7.3000E+02 4.8934E+01
 7.4000E+02 4.8047E+01
 7.5000E+02 4.5606E+01
 7.6000E+02 4.3849E+01
 7.7000E+02 4.1965E+01
 7.8000E+02 3.9286E+01
 7.9000E+02 3.8702E+01
 8.0000E+02 3.6411E+01
 8.1000E+02 3.4775E+01
 8.2000E+02 3.4772E+01
 8.3000E+02 3.2427E+01
 8.4000E+02 3.2784E+01
 8.5000E+02 3.1331E+01
 8.6000E+02 3.0462E+01
 8.7000E+02 3.2314E+01
 8.8000E+02 2.7818E+01
 8.9000E+02 2.8655E+01
 9.0000E+02 2.8508E+01
 9.1000E+02 2.4911E+01
 9.2000E+02 2.1730E+01
 9.3000E+02 8.4384E+00
 9.4000E+02 3.3189E+00
 9.5000E+02 3.3057E+00
 9.6000E+02 1.4583E+00
 9.7000E+02 2.4214E+00
 9.8000E+02 1.5216E+00
 9.9000E+02 6.6355E-01
 1.0000E+03 1.7521E+00
 1.0100E+03 9.8871E-01
 1.0200E+03 6.4793E-01
 1.0300E+03 6.6198E-01
 1.0400E+03 5.0569E-01
 1.0500E+03 4.8287E-01
 1.0600E+03 2.3550E-01
 1.0700E+03 4.9943E-01
 1.0800E+03 1.9303E-01
 1.0900E+03 1.3566E-01
 1.1000E+03 4.6161E-01
 1.1100E+03 1.1104E-01
 1.1200E+03 2.3001E-01
 1.1300E+03 2.8049E-01
 1.1400E+03 1.4414E-01
 1.1500E+03 2.1644E-01
 1.1600E+03 1.6777E-01
 1.1700E+03 2.0824E-01
 1.1800E+03 1.2157E-01
 1.1900E+03 2.3026E-01
 1.2000E+03 1.9896E-01
 1.2100E+03 1.0231E-01
 1.2200E+03 3.1592E-01
 1.2300E+03 1.0213E-01
 1.2400E+03 2.0134E-01
 1.2500E+03 2.8771E-01
 1.2600E+03 5.7356E-02
 1.2700E+03 3.0272E-01
 1.2800E+03 1.5836E-01
 1.2900E+03 1.2934E-01
 1.3000E+03 2.9302E-01
 1.3100E+03 7.8618E-02
 1.3200E+03 2.3303E-01
 1.3300E+03 1.8694E-01
 1.3400E+03 1.2165E-01
 1.3500E+03 2.4312E-01
 1.3600E+03 1.0514E-01
 1.3700E+03 2.1592E-01
 1.3800E+03 1.6617E-01
 1.3900E+03 1.3705E-01
 1.4000E+03 2.4195E-01
 1.4100E+03 9.5777E-02
 1.4200E+03 2.1916E-01
 1.4300E+03 1.7127E-01
 1.4400E+03 1.1023E-01
 1.4500E+03 2.4557E-01
 1.4600E+03 8.8338E-02
 1.4700E+03 1.7955E-01
 1.4800E+03 1.8321E-01
 1.4900E+03 7.5431E-02
 1.5000E+03 2.1549E-01
