-4.9000E+02-5.6691E-01
-4.8000E+02-5.6249E-01
-4.7000E+02-5.5424E-01
-4.6000E+02-5.4419E-01
-4.5000E+02-5.3488E-01
-4.4000E+02-5.2530E-01
-4.3000E+02-5.1583E-01
-4.2000E+02-5.0618E-01
-4.1000E+02-4.9633E-01
-4.0000E+02-4.8652E-01
-3.9000E+02-4.7645E-01
-3.8000E+02-4.6638E-01
-3.7000E+02-4.5616E-01
-3.6000E+02-4.4581E-01
-3.5000E+02-4.3543E-01
-3.4000E+02-4.2485E-01
-3.3000E+02-4.1424E-01
-3.2000E+02-4.0350E-01
-3.1000E+02-3.9264E-01
-3.0000E+02-3.8174E-01
-2.9000E+02-3.7068E-01
-2.8000E+02-3.5957E-01
-2.7000E+02-3.4834E-01
-2.6000E+02-3.3701E-01
-2.5000E+02-3.2563E-01
-2.4000E+02-3.1410E-01
-2.3000E+02-3.0254E-01
-2.2000E+02-2.9086E-01
-2.1000E+02-2.7910E-01
-2.0000E+02-2.6729E-01
-1.9000E+02-2.5536E-01
-1.8000E+02-2.4339E-01
-1.7000E+02-2.3133E-01
-1.6000E+02-2.1920E-01
-1.5000E+02-2.0702E-01
-1.4000E+02-1.9475E-01
-1.3000E+02-1.8245E-01
-1.2000E+02-1.7007E-01
-1.1000E+02-1.5764E-01
-1.0000E+02-1.4518E-01
-9.0000E+01-5.9092E-02
-8.0000E+01 6.9831E-01
-7.0000E+01 1.4711E+00
-6.0000E+01 2.2568E+00
-5.0000E+01 3.0532E+00
-4.0000E+01-2.4246E+00
-3.0000E+01-1.6118E+00
-2.0000E+01-7.9309E-01
-1.0000E+01 3.0530E-02
 0.0000E+00 8.5796E-01
 1.0000E+01 1.6884E+00
 2.0000E+01 2.5211E+00
 3.0000E+01-2.9278E+00
 4.0000E+01-2.0928E+00
 5.0000E+01-1.2568E+00
 6.0000E+01-4.1761E-01
 7.0000E+01 4.2625E-01
 8.0000E+01 1.2613E+00
 9.0000E+01 2.0704E+00
 1.0000E+02 2.8771E+00
 1.1000E+02-2.5618E+00
 1.2000E+02-1.6951E+00
 1.3000E+02-8.4747E-01
 1.4000E+02-2.1135E-02
 1.5000E+02 8.1102E-01
 1.6000E+02 1.6395E+00
 1.7000E+02 2.4475E+00
 1.8000E+02-3.0340E+00
 1.9000E+02-2.2282E+00
 2.0000E+02-1.4219E+00
 2.1000E+02-6.4278E-01
 2.2000E+02 8.1841E-02
 2.3000E+02 8.0691E-01
 2.4000E+02 1.5533E+00
 2.5000E+02 2.2686E+00
 2.6000E+02 2.9556E+00
 2.7000E+02-2.6520E+00
 2.8000E+02-1.9257E+00
 2.9000E+02-1.1079E+00
 3.0000E+02-2.5015E-01
 3.1000E+02 5.9630E-01
 3.2000E+02 1.4355E+00
 3.3000E+02 2.2685E+00
 3.4000E+02 3.0760E+00
 3.5000E+02-2.4411E+00
 3.6000E+02-1.6949E+00
 3.7000E+02-9.4676E-01
 3.8000E+02-2.0887E-01
 3.9000E+02 5.3492E-01
 4.0000E+02 1.2800E+00
 4.1000E+02 2.0279E+00
 4.2000E+02 2.7969E+00
 4.3000E+02-2.7406E+00
 4.4000E+02-2.0007E+00
 4.5000E+02-1.2411E+00
 4.6000E+02-5.1408E-01
 4.7000E+02 2.1247E-01
 4.8000E+02 9.4011E-01
 4.9000E+02 1.6090E+00
 5.0000E+02 2.2837E+00
 5.1000E+02 2.9816E+00
 5.2000E+02-2.6155E+00
 5.3000E+02-1.9487E+00
 5.4000E+02-1.2620E+00
 5.5000E+02-5.6633E-01
 5.6000E+02 1.5262E-01
 5.7000E+02 8.8765E-01
 5.8000E+02 1.6227E+00
 5.9000E+02 2.3904E+00
 6.0000E+02-3.1164E+00
 6.1000E+02-2.3502E+00
 6.2000E+02-1.5651E+00
 6.3000E+02-7.9215E-01
 6.4000E+02-2.5637E-02
 6.5000E+02 7.5068E-01
 6.6000E+02 1.5105E+00
 6.7000E+02 2.2658E+00
 6.8000E+02 3.0204E+00
 6.9000E+02-2.5118E+00
 7.0000E+02-1.7610E+00
 7.1000E+02-1.0060E+00
 7.2000E+02-2.5788E-01
 7.3000E+02 4.7236E-01
 7.4000E+02 1.2200E+00
 7.5000E+02 1.9653E+00
 7.6000E+02 2.6980E+00
 7.7000E+02-2.8383E+00
 7.8000E+02-2.1159E+00
 7.9000E+02-1.3859E+00
 8.0000E+02-6.4653E-01
 8.1000E+02 5.6020E-02
 8.2000E+02 7.9158E-01
 8.3000E+02 1.5085E+00
 8.4000E+02 2.2160E+00
 8.5000E+02 2.9500E+00
 8.6000E+02-2.6571E+00
 8.7000E+02-1.9072E+00
 8.8000E+02-1.1958E+00
 8.9000E+02-5.5539E-01
 9.0000E+02 1.8484E-01
 9.1000E+02 7.9499E-01
 9.2000E+02 1.4080E+00
 9.3000E+02 1.9101E+00
 9.4000E+02 1.7518E+00
 9.5000E+02 1.8725E+00
 9.6000E+02 1.8176E+00
 9.7000E+02 1.7210E+00
 9.8000E+02 2.1550E+00
 9.9000E+02 1.6128E+00
 1.0000E+03 1.7796E+00
 1.0100E+03 2.1543E+00
 1.0200E+03 1.9199E+00
 1.0300E+03 2.0283E+00
 1.0400E+03 1.9618E+00
 1.0500E+03 2.1112E+00
 1.0600E+03 1.9094E+00
 1.0700E+03 1.9232E+00
 1.0800E+03 2.5044E+00
 1.0900E+03 1.1160E+00
 1.1000E+03 1.7410E+00
 1.1100E+03 2.0659E+00
 1.1200E+03 1.3314E+00
 1.1300E+03 1.7840E+00
 1.1400E+03 1.6139E+00
 1.1500E+03 1.5974E+00
 1.1600E+03 1.5940E+00
 1.1700E+03 1.6098E+00
 1.1800E+03 1.5981E+00
 1.1900E+03 1.3724E+00
 1.2000E+03 1.7966E+00
 1.2100E+03 1.2376E+00
 1.2200E+03 1.4918E+00
 1.2300E+03 1.8618E+00
 1.2400E+03 1.1094E+00
 1.2500E+03 1.7305E+00
 1.2600E+03 1.3988E+00
 1.2700E+03 1.3034E+00
 1.2800E+03 1.8763E+00
 1.2900E+03 1.0742E+00
 1.3000E+03 1.5602E+00
 1.3100E+03 1.6088E+00
 1.3200E+03 1.2411E+00
 1.3300E+03 1.7167E+00
 1.3400E+03 1.2541E+00
 1.3500E+03 1.5150E+00
 1.3600E+03 1.5507E+00
 1.3700E+03 1.3312E+00
 1.3800E+03 1.6936E+00
 1.3900E+03 1.2793E+00
 1.4000E+03 1.5773E+00
 1.4100E+03 1.5881E+00
 1.4200E+03 1.3495E+00
 1.4300E+03 1.7851E+00
 1.4400E+03 1.3010E+00
 1.4500E+03 1.5814E+00
 1.4600E+03 1.7545E+00
 1.4700E+03 1.3152E+00
 1.4800E+03 1.8033E+00
 1.4900E+03 1.3999E+00
 1.5000E+03 1.5130E+00
