 0.0000E+00 2.9191E-01
 1.0000E+00 3.2015E-01
 2.0000E+00 1.6079E-01
 3.0000E+00 3.1110E-01
 4.0000E+00 1.6044E-01
 5.0000E+00 2.5220E-01
 6.0000E+00 1.8223E-01
 7.0000E+00 1.4850E-01
 8.0000E+00 1.2408E-01
 9.0000E+00 3.2082E-02
 1.0000E+01 7.9614E-04
 1.1000E+01 1.6284E-02
 1.2000E+01 6.6933E-02
 1.3000E+01 6.0540E-02
 1.4000E+01 1.0200E-02
 1.5000E+01 3.0106E-02
 1.6000E+01 1.7614E-02
 1.7000E+01 1.3600E-02
 1.8000E+01 1.8616E-02
 1.9000E+01 7.0388E-03
 2.0000E+01 1.3591E-02
 2.1000E+01 5.1963E-03
 2.2000E+01 5.1900E-03
 2.3000E+01 5.0881E-03
 2.4000E+01 2.7234E-03
 2.5000E+01 1.7254E-03
 2.6000E+01 2.3068E-03
 2.7000E+01 5.9735E-04
 2.8000E+01 1.3953E-03
 2.9000E+01 9.4023E-04
 3.0000E+01 3.0378E-04
 3.1000E+01 6.9499E-04
 3.2000E+01 7.2633E-04
 3.3000E+01 4.3098E-04
 3.4000E+01 6.1221E-04
 3.5000E+01 1.0706E-03
 3.6000E+01 3.1158E-04
 3.7000E+01 1.1992E-03
 3.8000E+01 7.8123E-04
 3.9000E+01 4.6067E-04
 4.0000E+01 7.6861E-04
 4.1000E+01 4.4007E-04
 4.2000E+01 1.0474E-03
 4.3000E+01 5.9312E-04
 4.4000E+01 1.0523E-03
 4.5000E+01 9.5088E-04
 4.6000E+01 4.3576E-04
 4.7000E+01 1.1243E-03
 4.8000E+01 4.0539E-04
 4.9000E+01 6.8515E-04
 5.0000E+01 1.1027E-03
 5.1000E+01 1.1104E-03
 5.2000E+01 9.1535E-04
 5.3000E+01 2.9333E-04
 5.4000E+01 1.0389E-03
 5.5000E+01 5.1834E-04
 5.6000E+01 1.9174E-04
 5.7000E+01 7.2743E-04
 5.8000E+01 2.4055E-04
 5.9000E+01 1.4260E-04
 6.0000E+01 4.0342E-04
 6.1000E+01 2.2383E-04
 6.2000E+01 3.9239E-04
 6.3000E+01 2.2300E-04
 6.4000E+01 3.8001E-05
 6.5000E+01 1.0773E-04
 6.6000E+01 7.7359E-05
 6.7000E+01 7.2157E-06
 6.8000E+01 1.6186E-05
 6.9000E+01 7.8204E-05
 7.0000E+01 1.2602E-04
 7.1000E+01 3.1182E-05
 7.2000E+01 4.8386E-06
 7.3000E+01 7.5428E-07
 7.4000E+01 6.0565E-05
 7.5000E+01 1.7957E-04
 7.6000E+01 1.9682E-04
 7.7000E+01 6.4321E-04
 7.8000E+01 1.3153E-03
 7.9000E+01 1.3426E-03
 8.0000E+01 1.2663E-03
 8.1000E+01 1.3176E-03
 8.2000E+01 8.9815E-04
 8.3000E+01 5.1514E-04
 8.4000E+01 1.2325E-03
 8.5000E+01 1.0388E-03
 8.6000E+01 6.7194E-04
 8.7000E+01 1.1384E-03
 8.8000E+01 2.2683E-04
 8.9000E+01 2.4708E-04
 9.0000E+01 2.1643E-04
 9.1000E+01 3.8737E-04
 9.2000E+01 1.5653E-03
 9.3000E+01 6.0965E-04
 9.4000E+01 3.3504E-04
 9.5000E+01 6.8606E-04
 9.6000E+01 9.8076E-05
 9.7000E+01 1.1580E-04
 9.8000E+01 1.7885E-04
 9.9000E+01 4.0502E-06
 1.0000E+02 5.5383E-05
 1.0100E+02 6.2285E-05
 1.0200E+02 2.9142E-05
 1.0300E+02 3.1549E-05
 1.0400E+02 6.1302E-05
 1.0500E+02 7.1676E-05
 1.0600E+02 2.1912E-05
 1.0700E+02 9.0988E-06
 1.0800E+02 6.6717E-05
 1.0900E+02 1.1622E-04
 1.1000E+02 1.3005E-04
 1.1100E+02 1.1402E-04
 1.1200E+02 7.7257E-05
 1.1300E+02 5.2182E-05
 1.1400E+02 4.3433E-05
 1.1500E+02 3.2926E-05
 1.1600E+02 3.1712E-05
 1.1700E+02 4.1508E-05
 1.1800E+02 3.6904E-05
 1.1900E+02 3.0032E-05
 1.2000E+02 5.7927E-05
 1.2100E+02 1.0094E-04
 1.2200E+02 1.0243E-04
 1.2300E+02 5.7894E-05
 1.2400E+02 1.7206E-05
 1.2500E+02 1.3358E-05
 1.2600E+02 3.5907E-05
 1.2700E+02 6.4212E-05
 1.2800E+02 9.0364E-05
 1.2900E+02 1.0871E-04
 1.3000E+02 1.0787E-04
 1.3100E+02 8.3508E-05
 1.3200E+02 4.9463E-05
 1.3300E+02 2.7843E-05
 1.3400E+02 2.9793E-05
 1.3500E+02 4.8224E-05
 1.3600E+02 6.6911E-05
 1.3700E+02 7.3869E-05
 1.3800E+02 6.7311E-05
 1.3900E+02 5.2766E-05
 1.4000E+02 3.7082E-05
 1.4100E+02 2.4636E-05
 1.4200E+02 1.6831E-05
 1.4300E+02 1.3363E-05
 1.4400E+02 1.3484E-05
 1.4500E+02 1.6595E-05
 1.4600E+02 2.2220E-05
 1.4700E+02 2.9691E-05
 1.4800E+02 3.7879E-05
 1.4900E+02 4.5223E-05
 1.5000E+02 5.0100E-05
 1.5100E+02 5.1362E-05
 1.5200E+02 4.8736E-05
 1.5300E+02 4.2876E-05
 1.5400E+02 3.5060E-05
 1.5500E+02 2.6724E-05
 1.5600E+02 1.9048E-05
 1.5700E+02 1.2740E-05
 1.5800E+02 8.0264E-06
 1.5900E+02 4.7872E-06
 1.6000E+02 2.7205E-06
 1.6100E+02 1.4863E-06
 1.6200E+02 7.9046E-07
 1.6300E+02 4.1602E-07
 1.6400E+02 2.2072E-07
 1.6500E+02 1.1988E-07
 1.6600E+02 6.6957E-08
 1.6700E+02 3.8066E-08
 1.6800E+02 2.1523E-08
 1.6900E+02 1.1756E-08
 1.7000E+02 6.0129E-09
 1.7100E+02 2.8024E-09
 1.7200E+02 1.1637E-09
 1.7300E+02 4.4129E-10
 1.7400E+02 1.7287E-10
 1.7500E+02 8.5511E-11
 1.7600E+02 4.6175E-11
 1.7700E+02 1.6283E-11
 1.7800E+02 7.5497E-12
 1.7900E+02 3.1574E-11
 1.8000E+02 8.6201E-11
 1.8100E+02 1.6915E-10
 1.8200E+02 2.3407E-10
 1.8300E+02 3.0327E-10
 1.8400E+02 3.0963E-10
 1.8500E+02 3.2387E-10
 1.8600E+02 2.7173E-10
 1.8700E+02 2.0415E-10
 1.8800E+02 1.3515E-10
 1.8900E+02 7.6873E-11
 1.9000E+02 3.5454E-11
 1.9100E+02 1.2465E-11
 1.9200E+02 2.8078E-12
 1.9300E+02 4.6973E-13
 1.9400E+02 7.7095E-14
 1.9500E+02 1.2424E-14
 1.9600E+02 1.9675E-15
 1.9700E+02 3.0628E-16
 1.9800E+02 4.7030E-17
 1.9900E+02 7.0510E-18
 2.0000E+02 1.1996E-18
