 0.0000E+00 3.4819E-01
 1.0000E+00 3.3817E-01
 2.0000E+00 3.2254E-01
 3.0000E+00 3.0007E-01
 4.0000E+00 2.7250E-01
 5.0000E+00 2.4190E-01
 6.0000E+00 2.1079E-01
 7.0000E+00 1.8105E-01
 8.0000E+00 1.5231E-01
 9.0000E+00 1.2428E-01
 1.0000E+01 1.0067E-01
 1.1000E+01 8.3377E-02
 1.2000E+01 6.7889E-02
 1.3000E+01 5.2692E-02
 1.4000E+01 4.0371E-02
 1.5000E+01 2.9156E-02
 1.6000E+01 1.9152E-02
 1.7000E+01 1.2542E-02
 1.8000E+01 7.3494E-03
 1.9000E+01 4.1993E-03
 2.0000E+01 3.1710E-03
 2.1000E+01 2.4152E-03
 2.2000E+01 2.3710E-03
 2.3000E+01 2.0458E-03
 2.4000E+01 2.1294E-03
 2.5000E+01 1.9490E-03
 2.6000E+01 1.7320E-03
 2.7000E+01 1.4263E-03
 2.8000E+01 1.1129E-03
 2.9000E+01 7.9909E-04
 3.0000E+01 4.5768E-04
 3.1000E+01 5.9830E-04
 3.2000E+01 3.7565E-04
 3.3000E+01 6.6868E-05
 3.4000E+01 1.2705E-05
 3.5000E+01 1.2475E-05
 3.6000E+01 7.4330E-06
 3.7000E+01 6.4735E-06
 3.8000E+01 4.1543E-06
 3.9000E+01 1.2509E-06
 4.0000E+01 1.4616E-07
 4.1000E+01 3.4717E-08
 4.2000E+01 2.8982E-08
 4.3000E+01 1.3348E-08
 4.4000E+01 5.4995E-09
 4.5000E+01 2.3027E-09
 4.6000E+01 1.8393E-09
 4.7000E+01 1.6414E-09
 4.8000E+01 1.3250E-09
 4.9000E+01 8.4725E-10
 5.0000E+01 7.8205E-10
 5.1000E+01 1.4512E-09
 5.2000E+01 1.8957E-09
 5.3000E+01 1.5264E-09
 5.4000E+01 7.9838E-10
 5.5000E+01 4.2909E-10
 5.6000E+01 7.2432E-10
 5.7000E+01 1.4212E-09
 5.8000E+01 2.0244E-09
 5.9000E+01 2.2240E-09
 6.0000E+01 2.0129E-09
 6.1000E+01 1.5634E-09
 6.2000E+01 1.0696E-09
 6.3000E+01 6.5606E-10
 6.4000E+01 3.6567E-10
 6.5000E+01 1.8709E-10
 6.6000E+01 8.8463E-11
 6.7000E+01 3.8851E-11
 6.8000E+01 1.5952E-11
 6.9000E+01 6.1483E-12
 7.0000E+01 2.2231E-12
 7.1000E+01 7.6090E-13
 7.2000E+01 2.4903E-13
 7.3000E+01 7.6388E-14
 7.4000E+01 2.2265E-14
 7.5000E+01 6.5031E-15
 7.6000E+01 1.6714E-15
 7.7000E+01 3.9455E-16
 7.8000E+01 1.4539E-16
 7.9000E+01 3.9282E-17
 8.0000E+01 2.7006E-17
 8.1000E+01 3.5188E-17
 8.2000E+01 9.2848E-18
 8.3000E+01 4.1953E-18
 8.4000E+01 9.3730E-18
 8.5000E+01 9.3298E-18
 8.6000E+01 2.1171E-18
 8.7000E+01 7.3190E-18
 8.8000E+01 1.4260E-17
 8.9000E+01 2.8899E-18
 9.0000E+01 5.5972E-18
 9.1000E+01 1.0171E-17
 9.2000E+01 1.4206E-18
 9.3000E+01 1.8550E-18
 9.4000E+01 4.4123E-18
 9.5000E+01 1.1301E-18
 9.6000E+01 1.1697E-18
 9.7000E+01 1.9116E-18
 9.8000E+01 1.9433E-18
 9.9000E+01 1.6142E-18
 1.0000E+02 1.2813E-18
 1.0100E+02 1.9026E-18
 1.0200E+02 1.6045E-18
 1.0300E+02 1.2369E-18
 1.0400E+02 1.9498E-18
 1.0500E+02 1.7011E-18
 1.0600E+02 1.3648E-18
 1.0700E+02 1.6922E-18
 1.0800E+02 1.4892E-18
 1.0900E+02 1.5605E-18
 1.1000E+02 1.6906E-18
 1.1100E+02 1.5507E-18
 1.1200E+02 1.4970E-18
 1.1300E+02 1.5514E-18
 1.1400E+02 1.5694E-18
 1.1500E+02 1.6148E-18
 1.1600E+02 1.5226E-18
 1.1700E+02 1.5067E-18
 1.1800E+02 1.5383E-18
 1.1900E+02 1.6163E-18
 1.2000E+02 1.5495E-18
 1.2100E+02 1.5180E-18
 1.2200E+02 1.5069E-18
 1.2300E+02 1.5381E-18
 1.2400E+02 1.4379E-18
 1.2500E+02 1.3907E-18
 1.2600E+02 1.4440E-18
 1.2700E+02 1.5771E-18
 1.2800E+02 1.6582E-18
 1.2900E+02 1.7845E-18
 1.3000E+02 1.9856E-18
 1.3100E+02 1.9900E-18
 1.3200E+02 1.8847E-18
 1.3300E+02 1.7370E-18
 1.3400E+02 1.5734E-18
 1.3500E+02 1.2689E-18
 1.3600E+02 1.1603E-18
 1.3700E+02 9.6844E-19
 1.3800E+02 7.5674E-19
 1.3900E+02 6.4838E-19
 1.4000E+02 5.0221E-19
 1.4100E+02 4.1098E-19
 1.4200E+02 3.3771E-19
 1.4300E+02 2.5885E-19
 1.4400E+02 2.0902E-19
 1.4500E+02 1.7024E-19
 1.4600E+02 1.3545E-19
 1.4700E+02 1.0773E-19
 1.4800E+02 8.7127E-20
 1.4900E+02 7.1413E-20
 1.5000E+02 5.7433E-20
 1.5100E+02 4.6435E-20
 1.5200E+02 3.8611E-20
 1.5300E+02 3.1620E-20
 1.5400E+02 2.5763E-20
 1.5500E+02 2.1605E-20
 1.5600E+02 1.7919E-20
 1.5700E+02 1.4804E-20
 1.5800E+02 1.2528E-20
 1.5900E+02 1.0423E-20
 1.6000E+02 8.7460E-21
 1.6100E+02 7.4563E-21
 1.6200E+02 6.2167E-21
 1.6300E+02 5.3297E-21
 1.6400E+02 4.5100E-21
 1.6500E+02 3.7893E-21
 1.6600E+02 3.3008E-21
 1.6700E+02 2.7491E-21
 1.6800E+02 2.3907E-21
 1.6900E+02 2.0375E-21
 1.7000E+02 1.7049E-21
 1.7100E+02 1.5025E-21
 1.7200E+02 1.2275E-21
 1.7300E+02 1.0879E-21
 1.7400E+02 8.9763E-22
 1.7500E+02 7.6416E-22
 1.7600E+02 6.4449E-22
 1.7700E+02 5.1828E-22
 1.7800E+02 4.4466E-22
 1.7900E+02 3.4136E-22
 1.8000E+02 2.9050E-22
 1.8100E+02 2.1232E-22
 1.8200E+02 1.7122E-22
 1.8300E+02 1.1552E-22
 1.8400E+02 8.4196E-23
 1.8500E+02 4.9683E-23
 1.8600E+02 3.1014E-23
 1.8700E+02 1.5224E-23
 1.8800E+02 7.4998E-24
 1.8900E+02 2.9487E-24
 1.9000E+02 9.3448E-25
 1.9100E+02 2.5458E-25
 1.9200E+02 4.7463E-26
 1.9300E+02 7.1494E-27
 1.9400E+02 1.1510E-27
 1.9500E+02 1.9161E-28
 1.9600E+02 2.9984E-29
 1.9700E+02 4.5058E-30
 1.9800E+02 7.0563E-31
 1.9900E+02 1.1022E-31
 2.0000E+02 3.0686E-32
