 0.0000E+00 2.8106E-02
 1.0000E+00 5.2519E-02
 2.0000E+00 2.9041E-02
 3.0000E+00 4.9399E-02
 4.0000E+00 3.1104E-02
 5.0000E+00 4.4378E-02
 6.0000E+00 3.3006E-02
 7.0000E+00 3.9428E-02
 8.0000E+00 3.2633E-02
 9.0000E+00 3.5376E-02
 1.0000E+01 3.0695E-02
 1.1000E+01 3.1187E-02
 1.2000E+01 2.9277E-02
 1.3000E+01 2.6056E-02
 1.4000E+01 2.8233E-02
 1.5000E+01 2.2398E-02
 1.6000E+01 2.5347E-02
 1.7000E+01 2.1066E-02
 1.8000E+01 2.1407E-02
 1.9000E+01 1.9666E-02
 2.0000E+01 1.7499E-02
 2.1000E+01 1.6593E-02
 2.2000E+01 1.2986E-02
 2.3000E+01 1.3649E-02
 2.4000E+01 8.0781E-03
 2.5000E+01 9.2037E-03
 2.6000E+01 6.0600E-03
 2.7000E+01 3.3929E-03
 2.8000E+01 4.9330E-03
 2.9000E+01 9.6167E-04
 3.0000E+01 1.8519E-03
 3.1000E+01 8.8377E-04
 3.2000E+01 1.1872E-04
 3.3000E+01 9.2367E-05
 3.4000E+01 5.1682E-04
 3.5000E+01 5.7290E-04
 3.6000E+01 9.1840E-04
 3.7000E+01 2.8562E-03
 3.8000E+01 2.0624E-03
 3.9000E+01 3.2850E-03
 4.0000E+01 6.0731E-03
 4.1000E+01 2.3180E-03
 4.2000E+01 5.2434E-03
 4.3000E+01 5.6829E-03
 4.4000E+01 2.9809E-03
 4.5000E+01 3.6368E-03
 4.6000E+01 5.8006E-03
 4.7000E+01 2.3441E-03
 4.8000E+01 3.3213E-03
 4.9000E+01 3.8848E-03
 5.0000E+01 1.2237E-03
 5.1000E+01 2.4963E-03
 5.2000E+01 1.9568E-03
 5.3000E+01 4.1157E-04
 5.4000E+01 3.8478E-04
 5.5000E+01 6.1311E-04
 5.6000E+01 5.8833E-04
 5.7000E+01 2.1213E-04
 5.8000E+01 7.2461E-05
 5.9000E+01 7.8096E-04
 6.0000E+01 1.0162E-03
 6.1000E+01 1.1290E-03
 6.2000E+01 1.2564E-03
 6.3000E+01 8.9788E-04
 6.4000E+01 1.3857E-03
 6.5000E+01 1.6611E-03
 6.6000E+01 9.9094E-04
 6.7000E+01 4.6861E-04
 6.8000E+01 6.1608E-04
 6.9000E+01 5.4109E-04
 7.0000E+01 4.3131E-04
 7.1000E+01 6.6606E-04
 7.2000E+01 1.0395E-03
 7.3000E+01 1.1970E-03
 7.4000E+01 9.9433E-04
 7.5000E+01 9.4199E-04
 7.6000E+01 6.7812E-04
 7.7000E+01 2.4011E-04
 7.8000E+01 2.0148E-05
 7.9000E+01 2.6768E-05
 8.0000E+01 7.8987E-05
 8.1000E+01 2.3849E-05
 8.2000E+01 8.6111E-05
 8.3000E+01 1.5169E-04
 8.4000E+01 6.1699E-05
 8.5000E+01 2.0905E-04
 8.6000E+01 2.4087E-04
 8.7000E+01 2.3988E-04
 8.8000E+01 4.2230E-04
 8.9000E+01 1.4227E-04
 9.0000E+01 3.1648E-04
 9.1000E+01 6.5752E-04
 9.2000E+01 2.0768E-04
 9.3000E+01 3.2896E-04
 9.4000E+01 8.8294E-04
 9.5000E+01 4.0961E-04
 9.6000E+01 4.4149E-04
 9.7000E+01 8.2705E-04
 9.8000E+01 3.6917E-04
 9.9000E+01 3.5575E-04
 1.0000E+02 4.7066E-04
 1.0100E+02 1.2797E-04
 1.0200E+02 2.9933E-04
 1.0300E+02 4.2294E-04
 1.0400E+02 1.4442E-04
 1.0500E+02 2.4099E-04
 1.0600E+02 2.9590E-04
 1.0700E+02 3.7476E-05
 1.0800E+02 1.0231E-04
 1.0900E+02 2.9470E-04
 1.1000E+02 1.4295E-04
 1.1100E+02 9.7039E-05
 1.1200E+02 1.8461E-04
 1.1300E+02 6.2238E-05
 1.1400E+02 2.4178E-06
 1.1500E+02 3.9823E-05
 1.1600E+02 5.5059E-05
 1.1700E+02 2.4023E-05
 1.1800E+02 3.8323E-05
 1.1900E+02 1.8780E-04
 1.2000E+02 1.4820E-04
 1.2100E+02 1.5453E-04
 1.2200E+02 4.2416E-04
 1.2300E+02 3.7396E-04
 1.2400E+02 2.0051E-04
 1.2500E+02 3.0025E-04
 1.2600E+02 3.3115E-04
 1.2700E+02 3.9208E-04
 1.2800E+02 5.8639E-04
 1.2900E+02 5.7185E-04
 1.3000E+02 5.3990E-04
 1.3100E+02 7.4597E-04
 1.3200E+02 8.8536E-04
 1.3300E+02 7.7802E-04
 1.3400E+02 5.7085E-04
 1.3500E+02 4.0673E-04
 1.3600E+02 3.4497E-04
 1.3700E+02 3.1952E-04
 1.3800E+02 2.4429E-04
 1.3900E+02 1.5671E-04
 1.4000E+02 1.1048E-04
 1.4100E+02 9.8487E-05
 1.4200E+02 1.1054E-04
 1.4300E+02 1.1474E-04
 1.4400E+02 7.1076E-05
 1.4500E+02 1.1195E-05
 1.4600E+02 9.3813E-06
 1.4700E+02 6.1229E-05
 1.4800E+02 8.6562E-05
 1.4900E+02 6.4587E-05
 1.5000E+02 6.8208E-05
 1.5100E+02 1.2739E-04
 1.5200E+02 1.7990E-04
 1.5300E+02 1.5143E-04
 1.5400E+02 8.9810E-05
 1.5500E+02 3.5931E-05
 1.5600E+02 1.1613E-05
 1.5700E+02 6.5843E-07
 1.5800E+02 2.9495E-06
 1.5900E+02 9.7494E-06
 1.6000E+02 1.2558E-05
 1.6100E+02 9.1004E-06
 1.6200E+02 7.9617E-06
 1.6300E+02 1.1351E-05
 1.6400E+02 2.4140E-05
 1.6500E+02 3.4140E-05
 1.6600E+02 2.9664E-05
 1.6700E+02 1.0589E-05
 1.6800E+02 4.0184E-06
 1.6900E+02 2.3841E-05
 1.7000E+02 5.6563E-05
 1.7100E+02 6.3050E-05
 1.7200E+02 4.9474E-05
 1.7300E+02 2.5243E-05
 1.7400E+02 1.6589E-05
 1.7500E+02 1.2419E-05
 1.7600E+02 1.3362E-05
 1.7700E+02 1.8354E-05
 1.7800E+02 3.7665E-05
 1.7900E+02 6.1304E-05
 1.8000E+02 7.2912E-05
 1.8100E+02 6.5125E-05
 1.8200E+02 4.1647E-05
 1.8300E+02 1.8144E-05
 1.8400E+02 4.8809E-06
 1.8500E+02 3.4750E-06
 1.8600E+02 1.0531E-05
 1.8700E+02 2.0665E-05
 1.8800E+02 2.7992E-05
 1.8900E+02 2.7978E-05
 1.9000E+02 1.9762E-05
 1.9100E+02 9.4900E-06
 1.9200E+02 2.6465E-06
 1.9300E+02 5.2971E-07
 1.9400E+02 1.0744E-07
 1.9500E+02 2.3025E-08
 1.9600E+02 5.3417E-09
 1.9700E+02 1.3123E-09
 1.9800E+02 3.3923E-10
 1.9900E+02 8.3060E-11
 2.0000E+02 2.6295E-11
