 0.0000E+00 5.6386E+00
 1.0000E+00 1.2076E+00
 2.0000E+00 5.9390E-01
 3.0000E+00 4.4752E-01
 4.0000E+00 2.6295E-01
 5.0000E+00 2.6682E-01
 6.0000E+00 1.6843E-01
 7.0000E+00 1.3161E-01
 8.0000E+00 1.1473E-01
 9.0000E+00 5.5584E-02
 1.0000E+01 5.1436E-02
 1.1000E+01 3.6235E-02
 1.2000E+01 1.7196E-02
 1.3000E+01 1.4367E-02
 1.4000E+01 7.7493E-03
 1.5000E+01 6.5356E-03
 1.6000E+01 7.8577E-04
 1.7000E+01 3.3828E-03
 1.8000E+01 1.7287E-03
 1.9000E+01 9.2515E-04
 2.0000E+01 2.7474E-03
 2.1000E+01 8.8651E-04
 2.2000E+01 1.6510E-05
 2.3000E+01 1.1733E-04
 2.4000E+01 6.2531E-04
 2.5000E+01 2.1416E-03
 2.6000E+01 1.4324E-03
 2.7000E+01 1.3363E-03
 2.8000E+01 3.0696E-03
 2.9000E+01 1.6106E-03
 3.0000E+01 2.6198E-03
 3.1000E+01 1.2858E-03
 3.2000E+01 1.1833E-03
 3.3000E+01 9.5860E-04
 3.4000E+01 5.0433E-05
 3.5000E+01 9.8088E-04
 3.6000E+01 4.1282E-04
 3.7000E+01 8.0646E-04
 3.8000E+01 1.0253E-03
 3.9000E+01 7.2809E-04
 4.0000E+01 1.5071E-03
 4.1000E+01 5.5426E-04
 4.2000E+01 4.8167E-04
 4.3000E+01 4.2269E-04
 4.4000E+01 9.0285E-04
 4.5000E+01 6.5284E-04
 4.6000E+01 3.8278E-04
 4.7000E+01 4.2360E-04
 4.8000E+01 1.5988E-04
 4.9000E+01 1.1755E-03
 5.0000E+01 7.0842E-04
 5.1000E+01 9.8796E-04
 5.2000E+01 1.1861E-03
 5.3000E+01 1.1876E-03
 5.4000E+01 1.8224E-03
 5.5000E+01 1.8332E-03
 5.6000E+01 1.2209E-03
 5.7000E+01 4.0278E-04
 5.8000E+01 6.8020E-04
 5.9000E+01 2.3340E-04
 6.0000E+01 6.6257E-04
 6.1000E+01 3.0378E-04
 6.2000E+01 1.0913E-04
 6.3000E+01 4.4563E-04
 6.4000E+01 2.6293E-04
 6.5000E+01 4.9063E-05
 6.6000E+01 1.0701E-04
 6.7000E+01 2.4630E-04
 6.8000E+01 2.3563E-04
 6.9000E+01 6.7029E-05
 7.0000E+01 7.2451E-05
 7.1000E+01 1.0396E-04
 7.2000E+01 1.0943E-04
 7.3000E+01 1.8315E-04
 7.4000E+01 1.2659E-04
 7.5000E+01 4.6075E-05
 7.6000E+01 1.4695E-04
 7.7000E+01 2.3780E-04
 7.8000E+01 2.0911E-04
 7.9000E+01 1.3606E-04
 8.0000E+01 8.1238E-05
 8.1000E+01 6.1343E-05
 8.2000E+01 5.9479E-05
 8.3000E+01 5.8654E-05
 8.4000E+01 5.6490E-05
 8.5000E+01 5.7284E-05
 8.6000E+01 6.3043E-05
 8.7000E+01 7.2153E-05
 8.8000E+01 8.1120E-05
 8.9000E+01 8.5925E-05
 9.0000E+01 8.3495E-05
 9.1000E+01 7.3287E-05
 9.2000E+01 5.7673E-05
 9.3000E+01 4.0600E-05
 9.4000E+01 2.5599E-05
 9.5000E+01 1.4524E-05
 9.6000E+01 7.4901E-06
 9.7000E+01 3.5868E-06
 9.8000E+01 1.6599E-06
 9.9000E+01 7.8716E-07
 1.0000E+02 4.0243E-07
 1.0100E+02 2.2257E-07
 1.0200E+02 1.2817E-07
 1.0300E+02 7.4082E-08
 1.0400E+02 4.2409E-08
 1.0500E+02 2.4121E-08
 1.0600E+02 1.3622E-08
 1.0700E+02 7.4622E-09
 1.0800E+02 3.7781E-09
 1.0900E+02 1.6803E-09
 1.1000E+02 6.8613E-10
 1.1100E+02 3.8757E-10
 1.1200E+02 3.9109E-10
 1.1300E+02 4.0684E-10
 1.1400E+02 3.2236E-10
 1.1500E+02 1.7959E-10
 1.1600E+02 8.0491E-11
 1.1700E+02 9.4410E-11
 1.1800E+02 2.1861E-10
 1.1900E+02 3.9471E-10
 1.2000E+02 5.5080E-10
 1.2100E+02 6.3709E-10
 1.2200E+02 6.3952E-10
 1.2300E+02 5.7333E-10
 1.2400E+02 4.6779E-10
 1.2500E+02 3.5201E-10
 1.2600E+02 2.4665E-10
 1.2700E+02 1.6211E-10
 1.2800E+02 1.0052E-10
 1.2900E+02 5.9070E-11
 1.3000E+02 3.3020E-11
 1.3100E+02 1.7616E-11
 1.3200E+02 8.9922E-12
 1.3300E+02 4.4016E-12
 1.3400E+02 2.0706E-12
 1.3500E+02 9.3804E-13
 1.3600E+02 4.0977E-13
 1.3700E+02 1.7300E-13
 1.3800E+02 7.0792E-14
 1.3900E+02 2.8101E-14
 1.4000E+02 1.0852E-14
 1.4100E+02 4.1087E-15
 1.4200E+02 1.5290E-15
 1.4300E+02 5.6249E-16
 1.4400E+02 2.1056E-16
 1.4500E+02 8.1098E-17
 1.4600E+02 3.1990E-17
 1.4700E+02 1.4049E-17
 1.4800E+02 7.6109E-18
 1.4900E+02 4.9765E-18
 1.5000E+02 3.7532E-18
 1.5100E+02 3.2573E-18
 1.5200E+02 2.8734E-18
 1.5300E+02 2.1959E-18
 1.5400E+02 1.5188E-18
 1.5500E+02 1.0580E-18
 1.5600E+02 6.4936E-19
 1.5700E+02 3.0871E-19
 1.5800E+02 1.4406E-19
 1.5900E+02 7.6279E-20
 1.6000E+02 2.4504E-20
 1.6100E+02 1.8387E-21
 1.6200E+02 6.6534E-22
 1.6300E+02 1.1524E-21
 1.6400E+02 8.1664E-21
 1.6500E+02 1.3658E-20
 1.6600E+02 9.1494E-21
 1.6700E+02 5.6133E-21
 1.6800E+02 6.7478E-21
 1.6900E+02 5.2484E-21
 1.7000E+02 1.4564E-21
 1.7100E+02 1.3463E-21
 1.7200E+02 2.4180E-21
 1.7300E+02 1.3325E-21
 1.7400E+02 2.8996E-22
 1.7500E+02 3.9612E-22
 1.7600E+02 5.2036E-22
 1.7700E+02 4.6535E-22
 1.7800E+02 2.0862E-22
 1.7900E+02 1.2913E-23
 1.8000E+02 1.1132E-23
 1.8100E+02 6.9163E-24
 1.8200E+02 1.6332E-22
 1.8300E+02 2.7673E-22
 1.8400E+02 1.7038E-22
 1.8500E+02 3.9597E-23
 1.8600E+02 1.9675E-23
 1.8700E+02 4.8792E-23
 1.8800E+02 9.2383E-23
 1.8900E+02 9.4151E-23
 1.9000E+02 5.0545E-23
 1.9100E+02 1.2378E-23
 1.9200E+02 1.3483E-24
 1.9300E+02 1.9140E-25
 1.9400E+02 9.9260E-26
 1.9500E+02 4.9308E-26
 1.9600E+02 1.8975E-26
 1.9700E+02 6.0800E-27
 1.9800E+02 1.7532E-27
 1.9900E+02 4.4186E-28
 2.0000E+02 1.3404E-28
