-3.3023E+02 1.4880E-19
-3.2689E+02 1.4023E-19
-3.2356E+02 1.3383E-19
-3.2022E+02 1.2998E-19
-3.1689E+02 1.2892E-19
-3.1355E+02 1.3070E-19
-3.1022E+02 1.3519E-19
-3.0688E+02 1.4208E-19
-3.0355E+02 1.5265E-19
-3.0021E+02 3.9058E-19
-2.9687E+02 9.8987E-19
-2.9354E+02 2.4744E-18
-2.9020E+02 6.0814E-18
-2.8687E+02 1.4660E-17
-2.8353E+02 3.4609E-17
-2.8020E+02 7.9923E-17
-2.7686E+02 1.8042E-16
-2.7353E+02 3.9802E-16
-2.7019E+02 8.5811E-16
-2.6685E+02 1.8087E-15
-2.6352E+02 3.7297E-15
-2.6018E+02 7.5342E-15
-2.5685E+02 1.4938E-14
-2.5351E+02 2.9152E-14
-2.5018E+02 5.6207E-14
-2.4684E+02 1.0760E-13
-2.4351E+02 2.0574E-13
-2.4017E+02 3.9532E-13
-2.3683E+02 7.6760E-13
-2.3350E+02 1.5115E-12
-2.3016E+02 3.0198E-12
-2.2683E+02 6.1060E-12
-2.2349E+02 1.2432E-11
-2.2016E+02 2.5335E-11
-2.1682E+02 5.1356E-11
-2.1349E+02 1.0300E-10
-2.1015E+02 2.0351E-10
-2.0681E+02 3.9491E-10
-2.0348E+02 7.5080E-10
-2.0014E+02 1.3964E-09
-1.9681E+02 2.5378E-09
-1.9347E+02 4.5041E-09
-1.9014E+02 7.8041E-09
-1.8680E+02 1.3200E-08
-1.8347E+02 2.1798E-08
-1.8013E+02 3.5171E-08
-1.7679E+02 5.5498E-08
-1.7346E+02 8.5800E-08
-1.7012E+02 1.3030E-07
-1.6679E+02 1.9515E-07
-1.6345E+02 2.8975E-07
-1.6012E+02 4.2939E-07
-1.5678E+02 6.3999E-07
-1.5345E+02 9.6643E-07
-1.5011E+02 1.4864E-06
-1.4677E+02 2.3321E-06
-1.4344E+02 3.7225E-06
-1.4010E+02 6.0086E-06
-1.3677E+02 9.7333E-06
-1.3343E+02 1.5704E-05
-1.3010E+02 2.5075E-05
-1.2676E+02 3.9425E-05
-1.2343E+02 6.0817E-05
-1.2009E+02 9.1821E-05
-1.1675E+02 1.3546E-04
-1.1342E+02 1.9505E-04
-1.1008E+02 2.7400E-04
-1.0675E+02 3.7544E-04
-1.0341E+02 5.0188E-04
-1.0008E+02 6.5502E-04
-9.6741E+01 8.3585E-04
-9.3405E+01 1.0454E-03
-9.0070E+01 1.2868E-03
-8.6734E+01 1.5682E-03
-8.3399E+01 1.9088E-03
-8.0063E+01 2.3461E-03
-7.6728E+01 2.9469E-03
-7.3392E+01 3.8241E-03
-7.0057E+01 5.1599E-03
-6.6721E+01 7.0198E-03
-6.3385E+01 1.0215E-02
-6.0050E+01 1.5593E-02
-5.6714E+01 1.6136E-02
-5.3379E+01 8.4578E-03
-5.0043E+01 3.0745E-03
-4.6708E+01 2.7626E-04
-4.3372E+01 1.5287E-04
-4.0037E+01 3.1377E-05
-3.6701E+01 8.9954E-03
-3.3365E+01 4.4543E-02
-3.0030E+01 4.9244E-02
-2.6694E+01 8.5918E-03
-2.3359E+01 2.3773E-02
-2.0023E+01 9.6438E-03
-1.6688E+01 1.5681E-02
-1.3352E+01 2.2695E-02
-1.0016E+01 1.6584E-02
-6.6809E+00 3.0769E-02
-3.3454E+00 3.3165E-02
-9.8242E-03 2.8106E-02
 3.3257E+00 3.7494E-02
 6.6613E+00 3.4508E-02
 9.9969E+00 4.5427E-02
 1.3332E+01 3.8746E-02
 1.6668E+01 5.7919E-02
 2.0004E+01 3.5705E-02
 2.3339E+01 1.2110E-02
 2.6675E+01 2.2501E-02
 3.0010E+01 1.3291E-02
 3.3346E+01 1.9056E-02
 3.6681E+01 3.6566E-02
 4.0017E+01 1.3653E-02
 4.3352E+01 1.6808E-02
 4.6688E+01 3.0238E-02
 5.0024E+01 7.0016E-03
 5.3359E+01 7.7474E-03
 5.6695E+01 4.0705E-03
 6.0030E+01 8.1538E-04
 6.3366E+01 3.1670E-03
 6.6701E+01 1.9542E-03
 7.0037E+01 3.1757E-03
 7.3372E+01 8.7527E-03
 7.6708E+01 9.4175E-04
 8.0044E+01 1.4912E-03
 8.3379E+01 2.8845E-03
 8.6715E+01 1.1811E-04
 9.0050E+01 3.8159E-04
 9.3386E+01 1.2752E-05
 9.6721E+01 4.0459E-05
 1.0006E+02 2.0834E-05
 1.0339E+02 1.0227E-05
 1.0673E+02 3.4497E-05
 1.1006E+02 8.8088E-05
 1.1340E+02 2.7647E-05
 1.1673E+02 3.8620E-05
 1.2007E+02 8.0431E-05
 1.2341E+02 8.0949E-05
 1.2674E+02 6.0213E-05
 1.3008E+02 4.1717E-05
 1.3341E+02 2.8494E-05
 1.3675E+02 1.9271E-05
 1.4008E+02 1.2909E-05
 1.4342E+02 8.5634E-06
 1.4675E+02 5.6263E-06
 1.5009E+02 3.6610E-06
 1.5343E+02 2.3594E-06
 1.5676E+02 1.5058E-06
 1.6010E+02 9.5189E-07
 1.6343E+02 5.9592E-07
 1.6677E+02 3.6949E-07
 1.7010E+02 2.2689E-07
 1.7344E+02 1.3798E-07
 1.7677E+02 8.3110E-08
 1.8011E+02 4.9577E-08
 1.8345E+02 2.9290E-08
 1.8678E+02 1.7138E-08
 1.9012E+02 9.9313E-09
 1.9345E+02 5.6998E-09
 1.9679E+02 3.2398E-09
 2.0012E+02 1.8238E-09
 2.0346E+02 1.0168E-09
 2.0679E+02 5.6146E-10
 2.1013E+02 3.0704E-10
 2.1347E+02 1.6629E-10
 2.1680E+02 8.9201E-11
 2.2014E+02 4.7387E-11
 2.2347E+02 2.4932E-11
 2.2681E+02 1.2992E-11
 2.3014E+02 6.7046E-12
 2.3348E+02 3.4268E-12
 2.3681E+02 1.7346E-12
 2.4015E+02 8.6963E-13
 2.4349E+02 4.3178E-13
 2.4682E+02 2.1233E-13
 2.5016E+02 1.0341E-13
 2.5349E+02 4.9875E-14
 2.5683E+02 2.3825E-14
 2.6016E+02 1.1272E-14
 2.6350E+02 5.2815E-15
 2.6683E+02 2.4509E-15
 2.7017E+02 1.1264E-15
 2.7351E+02 5.1272E-16
 2.7684E+02 2.3113E-16
 2.8018E+02 1.0319E-16
 2.8351E+02 4.5628E-17
 2.8685E+02 1.9982E-17
 2.9018E+02 8.6664E-18
 2.9352E+02 3.7226E-18
 2.9685E+02 1.5836E-18
 3.0019E+02 6.6724E-19
 3.0353E+02 2.7842E-19
 3.0686E+02 2.7530E-19
 3.1020E+02 2.7531E-19
 3.1353E+02 2.7531E-19
 3.1687E+02 2.7532E-19
 3.2020E+02 2.7533E-19
 3.2354E+02 2.7534E-19
 3.2687E+02 2.7535E-19
 3.3021E+02 2.7535E-19
 3.3355E+02 2.7536E-19
