-3.3023E+02 1.6742E-18
-3.2689E+02 1.5589E-18
-3.2356E+02 1.4192E-18
-3.2022E+02 1.2625E-18
-3.1689E+02 1.0969E-18
-3.1355E+02 9.3090E-19
-3.1022E+02 7.7283E-19
-3.0688E+02 6.3063E-19
-3.0355E+02 5.1713E-19
-3.0021E+02 1.0194E-18
-2.9687E+02 2.0858E-18
-2.9354E+02 4.5936E-18
-2.9020E+02 1.1095E-17
-2.8687E+02 2.8991E-17
-2.8353E+02 7.9137E-17
-2.8020E+02 2.1807E-16
-2.7686E+02 5.9293E-16
-2.7353E+02 1.5713E-15
-2.7019E+02 4.0361E-15
-2.6685E+02 1.0029E-14
-2.6352E+02 2.4099E-14
-2.6018E+02 5.6027E-14
-2.5685E+02 1.2610E-13
-2.5351E+02 2.7492E-13
-2.5018E+02 5.8086E-13
-2.4684E+02 1.1896E-12
-2.4351E+02 2.3619E-12
-2.4017E+02 4.5450E-12
-2.3683E+02 8.4733E-12
-2.3350E+02 1.5297E-11
-2.3016E+02 2.6724E-11
-2.2683E+02 4.5161E-11
-2.2349E+02 7.3826E-11
-2.2016E+02 1.1691E-10
-2.1682E+02 1.8014E-10
-2.1349E+02 2.7276E-10
-2.1015E+02 4.1371E-10
-2.0681E+02 6.4814E-10
-2.0348E+02 1.0867E-09
-2.0014E+02 1.9921E-09
-1.9681E+02 3.9547E-09
-1.9347E+02 8.2308E-09
-1.9014E+02 1.7355E-08
-1.8680E+02 3.6193E-08
-1.8347E+02 7.3663E-08
-1.8013E+02 1.4541E-07
-1.7679E+02 2.7769E-07
-1.7346E+02 5.1281E-07
-1.7012E+02 9.1595E-07
-1.6679E+02 1.5833E-06
-1.6345E+02 2.6499E-06
-1.6012E+02 4.2962E-06
-1.5678E+02 6.7485E-06
-1.5345E+02 1.0271E-05
-1.5011E+02 1.5145E-05
-1.4677E+02 2.1627E-05
-1.4344E+02 2.9898E-05
-1.4010E+02 4.0004E-05
-1.3677E+02 5.1816E-05
-1.3343E+02 6.5053E-05
-1.3010E+02 7.9446E-05
-1.2676E+02 9.5135E-05
-1.2343E+02 1.1343E-04
-1.2009E+02 1.3807E-04
-1.1675E+02 1.7704E-04
-1.1342E+02 2.4520E-04
-1.1008E+02 3.6732E-04
-1.0675E+02 5.8175E-04
-1.0341E+02 9.4392E-04
-1.0008E+02 1.5295E-03
-9.6741E+01 2.4360E-03
-9.3405E+01 3.7824E-03
-9.0070E+01 5.7062E-03
-8.6734E+01 8.3574E-03
-8.3399E+01 1.1891E-02
-8.0063E+01 1.6458E-02
-7.6728E+01 2.2201E-02
-7.3392E+01 2.9305E-02
-7.0057E+01 3.8388E-02
-6.6721E+01 4.8679E-02
-6.3385E+01 6.1941E-02
-6.0050E+01 9.1082E-02
-5.6714E+01 7.8011E-02
-5.3379E+01 2.6329E-02
-5.0043E+01 1.0909E-02
-4.6708E+01 3.2432E-03
-4.3372E+01 1.4291E-03
-4.0037E+01 1.0504E-02
-3.6701E+01 2.3231E-02
-3.3365E+01 2.8387E-02
-3.0030E+01 1.5750E-01
-2.6694E+01 8.1596E-02
-2.3359E+01 7.1850E-02
-2.0023E+01 1.8847E-01
-1.6688E+01 1.2454E-01
-1.3352E+01 3.8678E-01
-1.0016E+01 4.5647E-01
-6.6809E+00 3.5698E-01
-3.3454E+00 3.7333E-01
-9.8242E-03 2.9191E-01
 3.3257E+00 3.3079E-01
 6.6613E+00 3.8793E-01
 9.9969E+00 4.4762E-01
 1.3332E+01 7.0866E-01
 1.6668E+01 5.5535E-01
 2.0004E+01 1.8147E-01
 2.3339E+01 5.7340E-01
 2.6675E+01 2.2267E-01
 3.0010E+01 1.5295E-01
 3.3346E+01 3.3258E-01
 3.6681E+01 2.5860E-01
 4.0017E+01 1.8529E-01
 4.3352E+01 1.4223E-01
 4.6688E+01 8.7018E-02
 5.0024E+01 1.9036E-01
 5.3359E+01 1.9688E-02
 5.6695E+01 4.7280E-02
 6.0030E+01 6.3838E-02
 6.3366E+01 4.5587E-03
 6.6701E+01 2.0491E-03
 7.0037E+01 4.8023E-02
 7.3372E+01 1.0825E-03
 7.6708E+01 1.3668E-03
 8.0044E+01 1.4779E-03
 8.3379E+01 4.4643E-04
 8.6715E+01 1.7641E-03
 9.0050E+01 1.4636E-03
 9.3386E+01 6.4870E-05
 9.6721E+01 7.3909E-05
 1.0006E+02 3.0921E-05
 1.0339E+02 1.1104E-05
 1.0673E+02 3.8609E-05
 1.1006E+02 1.4496E-04
 1.1340E+02 6.3068E-05
 1.1673E+02 4.4537E-05
 1.2007E+02 1.1943E-04
 1.2341E+02 1.3829E-04
 1.2674E+02 1.0618E-04
 1.3008E+02 7.3723E-05
 1.3341E+02 5.0346E-05
 1.3675E+02 3.4042E-05
 1.4008E+02 2.2797E-05
 1.4342E+02 1.5120E-05
 1.4675E+02 9.9315E-06
 1.5009E+02 6.4609E-06
 1.5343E+02 4.1626E-06
 1.5676E+02 2.6561E-06
 1.6010E+02 1.6786E-06
 1.6343E+02 1.0506E-06
 1.6677E+02 6.5123E-07
 1.7010E+02 3.9980E-07
 1.7344E+02 2.4308E-07
 1.7677E+02 1.4638E-07
 1.8011E+02 8.7295E-08
 1.8345E+02 5.1560E-08
 1.8678E+02 3.0160E-08
 1.9012E+02 1.7473E-08
 1.9345E+02 1.0026E-08
 1.9679E+02 5.6971E-09
 2.0012E+02 3.2063E-09
 2.0346E+02 1.7871E-09
 2.0679E+02 9.8653E-10
 2.1013E+02 5.3935E-10
 2.1347E+02 2.9204E-10
 2.1680E+02 1.5661E-10
 2.2014E+02 8.3175E-11
 2.2347E+02 4.3749E-11
 2.2681E+02 2.2791E-11
 2.3014E+02 1.1759E-11
 2.3348E+02 6.0082E-12
 2.3681E+02 3.0405E-12
 2.4015E+02 1.5239E-12
 2.4349E+02 7.5643E-13
 2.4682E+02 3.7186E-13
 2.5016E+02 1.8105E-13
 2.5349E+02 8.7302E-14
 2.5683E+02 4.1692E-14
 2.6016E+02 1.9719E-14
 2.6350E+02 9.2369E-15
 2.6683E+02 4.2852E-15
 2.7017E+02 1.9689E-15
 2.7351E+02 8.9593E-16
 2.7684E+02 4.0377E-16
 2.8018E+02 1.8022E-16
 2.8351E+02 7.9663E-17
 2.8685E+02 3.4877E-17
 2.9018E+02 1.5122E-17
 2.9352E+02 6.4937E-18
 2.9685E+02 2.7617E-18
 3.0019E+02 1.1632E-18
 3.0353E+02 4.8524E-19
 3.0686E+02 4.7966E-19
 3.1020E+02 4.7953E-19
 3.1353E+02 4.7940E-19
 3.1687E+02 4.7927E-19
 3.2020E+02 4.7914E-19
 3.2354E+02 4.7901E-19
 3.2687E+02 4.7888E-19
 3.3021E+02 4.7875E-19
 3.3355E+02 4.7861E-19
