-3.3023E+02 8.2285E-01
-3.2689E+02 8.7815E-01
-3.2356E+02 9.4704E-01
-3.2022E+02 1.0292E+00
-3.1689E+02 1.1236E+00
-3.1355E+02 1.2283E+00
-3.1022E+02 1.3419E+00
-3.0688E+02 1.4626E+00
-3.0355E+02 1.5889E+00
-3.0021E+02 1.7195E+00
-2.9687E+02 1.8532E+00
-2.9354E+02 1.9889E+00
-2.9020E+02 2.1255E+00
-2.8687E+02 2.2620E+00
-2.8353E+02 2.3974E+00
-2.8020E+02 2.5305E+00
-2.7686E+02 2.6600E+00
-2.7353E+02 2.7845E+00
-2.7019E+02 2.9021E+00
-2.6685E+02 3.0110E+00
-2.6352E+02 3.1086E+00
-2.6018E+02-3.0910E+00
-2.5685E+02-3.0239E+00
-2.5351E+02-2.9753E+00
-2.5018E+02-2.9453E+00
-2.4684E+02-2.9307E+00
-2.4351E+02-2.9245E+00
-2.4017E+02-2.9170E+00
-2.3683E+02-2.8988E+00
-2.3350E+02-2.8639E+00
-2.3016E+02-2.8100E+00
-2.2683E+02-2.7376E+00
-2.2349E+02-2.6491E+00
-2.2016E+02-2.5470E+00
-2.1682E+02-2.4340E+00
-2.1349E+02-2.3124E+00
-2.1015E+02-2.1841E+00
-2.0681E+02-2.0510E+00
-2.0348E+02-1.9143E+00
-2.0014E+02-1.7753E+00
-1.9681E+02-1.6352E+00
-1.9347E+02-1.4950E+00
-1.9014E+02-1.3558E+00
-1.8680E+02-1.2188E+00
-1.8347E+02-1.0853E+00
-1.8013E+02-9.5668E-01
-1.7679E+02-8.3477E-01
-1.7346E+02-7.2169E-01
-1.7012E+02-6.1997E-01
-1.6679E+02-5.3259E-01
-1.6345E+02-4.6268E-01
-1.6012E+02-4.1295E-01
-1.5678E+02-3.8438E-01
-1.5345E+02-3.7446E-01
-1.5011E+02-3.7591E-01
-1.4677E+02-3.7770E-01
-1.4344E+02-3.6868E-01
-1.4010E+02-3.4130E-01
-1.3677E+02-2.9279E-01
-1.3343E+02-2.2400E-01
-1.3010E+02-1.3762E-01
-1.2676E+02-3.6849E-02
-1.2343E+02 7.5252E-02
-1.2009E+02 1.9599E-01
-1.1675E+02 3.2308E-01
-1.1342E+02 4.5452E-01
-1.1008E+02 5.8859E-01
-1.0675E+02 7.2367E-01
-1.0341E+02 8.5821E-01
-1.0008E+02 9.9064E-01
-9.6741E+01 1.1193E+00
-9.3405E+01 1.2425E+00
-9.0070E+01 1.3582E+00
-8.6734E+01 1.4644E+00
-8.3399E+01 1.5586E+00
-8.0063E+01 1.6383E+00
-7.6728E+01 1.7008E+00
-7.3392E+01 1.7436E+00
-7.0057E+01 1.7644E+00
-6.6721E+01 1.7611E+00
-6.3385E+01 1.7326E+00
-6.0050E+01 1.6758E+00
-5.6714E+01 1.5656E+00
-5.3379E+01 1.3028E+00
-5.0043E+01 7.0381E-01
-4.6708E+01 1.8699E-01
-4.3372E+01-1.2048E-01
-4.0037E+01-4.0652E-01
-3.6701E+01-7.1299E-01
-3.3365E+01-1.0287E+00
-3.0030E+01-1.3492E+00
-2.6694E+01-1.6896E+00
-2.3359E+01-2.0205E+00
-2.0023E+01-2.3256E+00
-1.6688E+01-2.6333E+00
-1.3352E+01-2.8970E+00
-1.0016E+01-3.0613E+00
-6.6809E+00 3.1179E+00
-3.3454E+00 3.0159E+00
-9.8242E-03 2.9816E+00
 3.3257E+00 3.0408E+00
 6.6613E+00-3.1281E+00
 9.9969E+00-2.9415E+00
 1.3332E+01-2.6842E+00
 1.6668E+01-2.3440E+00
 2.0004E+01-1.9635E+00
 2.3339E+01-1.5781E+00
 2.6675E+01-1.1938E+00
 3.0010E+01-7.0186E-01
 3.3346E+01 3.4236E-01
 3.6681E+01 1.4966E+00
 4.0017E+01 2.4039E+00
 4.3352E+01-3.1255E+00
 4.6688E+01-2.4251E+00
 5.0024E+01-1.8850E+00
 5.3359E+01-1.5166E+00
 5.6695E+01-1.2282E+00
 6.0030E+01-8.6112E-01
 6.3366E+01-2.2852E-01
 6.6701E+01-6.6093E-01
 7.0037E+01 4.8507E-01
 7.3372E+01 1.8160E+00
 7.6708E+01-2.4375E+00
 8.0044E+01 2.2355E-02
 8.3379E+01-1.3002E+00
 8.6715E+01 1.6332E+00
 9.0050E+01-3.0311E+00
 9.3386E+01-1.6984E+00
 9.6721E+01 1.6381E+00
 1.0006E+02 6.0869E-01
 1.0339E+02-3.0793E+00
 1.0673E+02 1.1432E+00
 1.1006E+02 1.7056E-01
 1.1340E+02-8.7624E-01
 1.1673E+02 2.7364E-01
 1.2007E+02 8.7519E-01
 1.2341E+02 6.5877E-01
 1.2674E+02 5.8928E-01
 1.3008E+02 5.8427E-01
 1.3341E+02 5.8451E-01
 1.3675E+02 5.8493E-01
 1.4008E+02 5.8536E-01
 1.4342E+02 5.8578E-01
 1.4675E+02 5.8620E-01
 1.5009E+02 5.8662E-01
 1.5343E+02 5.8704E-01
 1.5676E+02 5.8745E-01
 1.6010E+02 5.8787E-01
 1.6343E+02 5.8829E-01
 1.6677E+02 5.8870E-01
 1.7010E+02 5.8911E-01
 1.7344E+02 5.8952E-01
 1.7677E+02 5.8994E-01
 1.8011E+02 5.9035E-01
 1.8345E+02 5.9075E-01
 1.8678E+02 5.9116E-01
 1.9012E+02 5.9157E-01
 1.9345E+02 5.9197E-01
 1.9679E+02 5.9238E-01
 2.0012E+02 5.9278E-01
 2.0346E+02 5.9319E-01
 2.0679E+02 5.9359E-01
 2.1013E+02 5.9399E-01
 2.1347E+02 5.9439E-01
 2.1680E+02 5.9479E-01
 2.2014E+02 5.9518E-01
 2.2347E+02 5.9559E-01
 2.2681E+02 5.9598E-01
 2.3014E+02 5.9638E-01
 2.3348E+02 5.9677E-01
 2.3681E+02 5.9716E-01
 2.4015E+02 5.9756E-01
 2.4349E+02 5.9794E-01
 2.4682E+02 5.9833E-01
 2.5016E+02 5.9872E-01
 2.5349E+02 5.9911E-01
 2.5683E+02 5.9950E-01
 2.6016E+02 5.9988E-01
 2.6350E+02 6.0027E-01
 2.6683E+02 6.0065E-01
 2.7017E+02 6.0103E-01
 2.7351E+02 6.0142E-01
 2.7684E+02 6.0180E-01
 2.8018E+02 6.0218E-01
 2.8351E+02 6.0256E-01
 2.8685E+02 6.0293E-01
 2.9018E+02 6.0331E-01
 2.9352E+02 6.0369E-01
 2.9685E+02 6.0406E-01
 3.0019E+02 6.0443E-01
 3.0353E+02 6.0481E-01
 3.0686E+02 6.0518E-01
 3.1020E+02 6.0555E-01
 3.1353E+02 6.0592E-01
 3.1687E+02 6.0629E-01
 3.2020E+02 6.0666E-01
 3.2354E+02 6.0703E-01
 3.2687E+02 6.0739E-01
 3.3021E+02 6.0776E-01
 3.3355E+02 6.0812E-01
