-3.3023E+02 2.8975E+00
-3.2689E+02 2.8762E+00
-3.2356E+02 2.8469E+00
-3.2022E+02 2.8118E+00
-3.1689E+02 2.7737E+00
-3.1355E+02 2.7363E+00
-3.1022E+02 2.7029E+00
-3.0688E+02 2.6763E+00
-3.0355E+02 2.6581E+00
-3.0021E+02 2.6489E+00
-2.9687E+02 2.6486E+00
-2.9354E+02 2.6563E+00
-2.9020E+02 2.6709E+00
-2.8687E+02 2.6910E+00
-2.8353E+02 2.7155E+00
-2.8020E+02 2.7428E+00
-2.7686E+02 2.7718E+00
-2.7353E+02 2.8012E+00
-2.7019E+02 2.8296E+00
-2.6685E+02 2.8557E+00
-2.6352E+02 2.8781E+00
-2.6018E+02 2.8955E+00
-2.5685E+02 2.9065E+00
-2.5351E+02 2.9096E+00
-2.5018E+02 2.9037E+00
-2.4684E+02 2.8882E+00
-2.4351E+02 2.8630E+00
-2.4017E+02 2.8294E+00
-2.3683E+02 2.7897E+00
-2.3350E+02 2.7474E+00
-2.3016E+02 2.7066E+00
-2.2683E+02 2.6710E+00
-2.2349E+02 2.6433E+00
-2.2016E+02 2.6253E+00
-2.1682E+02 2.6173E+00
-2.1349E+02 2.6189E+00
-2.1015E+02 2.6291E+00
-2.0681E+02 2.6465E+00
-2.0348E+02 2.6698E+00
-2.0014E+02 2.6975E+00
-1.9681E+02 2.7283E+00
-1.9347E+02 2.7609E+00
-1.9014E+02 2.7939E+00
-1.8680E+02 2.8260E+00
-1.8347E+02 2.8559E+00
-1.8013E+02 2.8820E+00
-1.7679E+02 2.9029E+00
-1.7346E+02 2.9170E+00
-1.7012E+02 2.9226E+00
-1.6679E+02 2.9182E+00
-1.6345E+02 2.9027E+00
-1.6012E+02 2.8756E+00
-1.5678E+02 2.8379E+00
-1.5345E+02 2.7920E+00
-1.5011E+02 2.7419E+00
-1.4677E+02 2.6927E+00
-1.4344E+02 2.6491E+00
-1.4010E+02 2.6148E+00
-1.3677E+02 2.5918E+00
-1.3343E+02 2.5806E+00
-1.3010E+02 2.5805E+00
-1.2676E+02 2.5901E+00
-1.2343E+02 2.6077E+00
-1.2009E+02 2.6316E+00
-1.1675E+02 2.6599E+00
-1.1342E+02 2.6909E+00
-1.1008E+02 2.7225E+00
-1.0675E+02 2.7530E+00
-1.0341E+02 2.7802E+00
-1.0008E+02 2.8017E+00
-9.6741E+01 2.8150E+00
-9.3405E+01 2.8170E+00
-9.0070E+01 2.8046E+00
-8.6734E+01 2.7744E+00
-8.3399E+01 2.7238E+00
-8.0063E+01 2.6511E+00
-7.6728E+01 2.5568E+00
-7.3392E+01 2.4436E+00
-7.0057E+01 2.3200E+00
-6.6721E+01 2.1839E+00
-6.3385E+01 2.0107E+00
-6.0050E+01 1.8636E+00
-5.6714E+01 1.5188E+00
-5.3379E+01 1.1586E+00
-5.0043E+01 9.8082E-01
-4.6708E+01 9.4914E-01
-4.3372E+01-1.8063E+00
-4.0037E+01 1.9678E+00
-3.6701E+01 1.8985E+00
-3.3365E+01 1.9508E+00
-3.0030E+01 2.0107E+00
-2.6694E+01 1.3229E+00
-2.3359E+01 9.3865E-02
-2.0023E+01 6.7035E-01
-1.6688E+01 2.3019E+00
-1.3352E+01 2.6456E+00
-1.0016E+01 2.2318E+00
-6.6809E+00 1.9231E+00
-3.3454E+00 1.9601E+00
-9.8242E-03 1.8437E+00
 3.3257E+00 1.8955E+00
 6.6613E+00 2.0901E+00
 9.9969E+00 1.9661E+00
 1.3332E+01 2.0722E+00
 1.6668E+01 2.5816E+00
 2.0004E+01 1.7974E+00
 2.3339E+01 2.9070E+00
 2.6675E+01 2.6849E+00
 3.0010E+01-2.4298E+00
 3.3346E+01 4.7305E-01
 3.6681E+01 2.7472E+00
 4.0017E+01-1.9961E+00
 4.3352E+01-9.9787E-02
 4.6688E+01 6.3947E-01
 5.0024E+01 1.0103E+00
 5.3359E+01 3.1016E+00
 5.6695E+01 2.0895E+00
 6.0030E+01 2.2163E+00
 6.3366E+01-7.6889E-01
 6.6701E+01 1.0348E-02
 7.0037E+01-1.9495E+00
 7.3372E+01-6.9861E-01
 7.6708E+01-1.4337E+00
 8.0044E+01-1.1357E+00
 8.3379E+01 7.3365E-01
 8.6715E+01 1.5181E+00
 9.0050E+01-2.9062E+00
 9.3386E+01-3.0341E+00
 9.6721E+01 2.0529E+00
 1.0006E+02 8.1912E-01
 1.0339E+02 3.2538E-01
 1.0673E+02 1.0989E+00
 1.1006E+02 5.6239E-01
 1.1340E+02 2.3507E-01
 1.1673E+02 1.3423E+00
 1.2007E+02 1.2914E+00
 1.2341E+02 1.1499E+00
 1.2674E+02 1.1088E+00
 1.3008E+02 1.1057E+00
 1.3341E+02 1.1058E+00
 1.3675E+02 1.1061E+00
 1.4008E+02 1.1064E+00
 1.4342E+02 1.1067E+00
 1.4675E+02 1.1070E+00
 1.5009E+02 1.1073E+00
 1.5343E+02 1.1076E+00
 1.5676E+02 1.1078E+00
 1.6010E+02 1.1081E+00
 1.6343E+02 1.1084E+00
 1.6677E+02 1.1087E+00
 1.7010E+02 1.1090E+00
 1.7344E+02 1.1092E+00
 1.7677E+02 1.1095E+00
 1.8011E+02 1.1098E+00
 1.8345E+02 1.1100E+00
 1.8678E+02 1.1103E+00
 1.9012E+02 1.1106E+00
 1.9345E+02 1.1108E+00
 1.9679E+02 1.1111E+00
 2.0012E+02 1.1114E+00
 2.0346E+02 1.1116E+00
 2.0679E+02 1.1119E+00
 2.1013E+02 1.1121E+00
 2.1347E+02 1.1124E+00
 2.1680E+02 1.1126E+00
 2.2014E+02 1.1129E+00
 2.2347E+02 1.1131E+00
 2.2681E+02 1.1134E+00
 2.3014E+02 1.1136E+00
 2.3348E+02 1.1138E+00
 2.3681E+02 1.1141E+00
 2.4015E+02 1.1143E+00
 2.4349E+02 1.1145E+00
 2.4682E+02 1.1148E+00
 2.5016E+02 1.1150E+00
 2.5349E+02 1.1152E+00
 2.5683E+02 1.1154E+00
 2.6016E+02 1.1157E+00
 2.6350E+02 1.1159E+00
 2.6683E+02 1.1161E+00
 2.7017E+02 1.1163E+00
 2.7351E+02 1.1165E+00
 2.7684E+02 1.1167E+00
 2.8018E+02 1.1170E+00
 2.8351E+02 1.1172E+00
 2.8685E+02 1.1174E+00
 2.9018E+02 1.1176E+00
 2.9352E+02 1.1178E+00
 2.9685E+02 1.1180E+00
 3.0019E+02 1.1182E+00
 3.0353E+02 1.1184E+00
 3.0686E+02 1.1185E+00
 3.1020E+02 1.1187E+00
 3.1353E+02 1.1189E+00
 3.1687E+02 1.1191E+00
 3.2020E+02 1.1193E+00
 3.2354E+02 1.1195E+00
 3.2687E+02 1.1197E+00
 3.3021E+02 1.1198E+00
 3.3355E+02 1.1200E+00
