-3.3023E+02 2.7465E+00
-3.2689E+02 2.8087E+00
-3.2356E+02 2.8661E+00
-3.2022E+02 2.9169E+00
-3.1689E+02 2.9585E+00
-3.1355E+02 2.9879E+00
-3.1022E+02 3.0006E+00
-3.0688E+02 2.9910E+00
-3.0355E+02 2.9527E+00
-3.0021E+02 2.8797E+00
-2.9687E+02 2.7715E+00
-2.9354E+02 2.6386E+00
-2.9020E+02 2.5035E+00
-2.8687E+02 2.3898E+00
-2.8353E+02 2.3104E+00
-2.8020E+02 2.2661E+00
-2.7686E+02 2.2517E+00
-2.7353E+02 2.2604E+00
-2.7019E+02 2.2866E+00
-2.6685E+02 2.3256E+00
-2.6352E+02 2.3740E+00
-2.6018E+02 2.4293E+00
-2.5685E+02 2.4893E+00
-2.5351E+02 2.5526E+00
-2.5018E+02 2.6177E+00
-2.4684E+02 2.6835E+00
-2.4351E+02 2.7490E+00
-2.4017E+02 2.8128E+00
-2.3683E+02 2.8737E+00
-2.3350E+02 2.9303E+00
-2.3016E+02 2.9806E+00
-2.2683E+02 3.0223E+00
-2.2349E+02 3.0522E+00
-2.2016E+02 3.0662E+00
-2.1682E+02 3.0588E+00
-2.1349E+02 3.0239E+00
-2.1015E+02 2.9555E+00
-2.0681E+02 2.8523E+00
-2.0348E+02 2.7232E+00
-2.0014E+02 2.5890E+00
-1.9681E+02 2.4731E+00
-1.9347E+02 2.3898E+00
-1.9014E+02 2.3412E+00
-1.8680E+02 2.3227E+00
-1.8347E+02 2.3280E+00
-1.8013E+02 2.3511E+00
-1.7679E+02 2.3873E+00
-1.7346E+02 2.4332E+00
-1.7012E+02 2.4861E+00
-1.6679E+02 2.5437E+00
-1.6345E+02 2.6044E+00
-1.6012E+02 2.6668E+00
-1.5678E+02 2.7296E+00
-1.5345E+02 2.7916E+00
-1.5011E+02 2.8513E+00
-1.4677E+02 2.9073E+00
-1.4344E+02 2.9579E+00
-1.4010E+02 3.0007E+00
-1.3677E+02 3.0330E+00
-1.3343E+02 3.0510E+00
-1.3010E+02 3.0501E+00
-1.2676E+02 3.0246E+00
-1.2343E+02 2.9690E+00
-1.2009E+02 2.8806E+00
-1.1675E+02 2.7641E+00
-1.1342E+02 2.6349E+00
-1.1008E+02 2.5139E+00
-1.0675E+02 2.4171E+00
-1.0341E+02 2.3498E+00
-1.0008E+02 2.3095E+00
-9.6741E+01 2.2899E+00
-9.3405E+01 2.2845E+00
-9.0070E+01 2.2870E+00
-8.6734E+01 2.2923E+00
-8.3399E+01 2.2956E+00
-8.0063E+01 2.2924E+00
-7.6728E+01 2.2781E+00
-7.3392E+01 2.2472E+00
-7.0057E+01 2.1963E+00
-6.6721E+01 2.1254E+00
-6.3385E+01 1.9769E+00
-6.0050E+01 1.7876E+00
-5.6714E+01 1.3773E+00
-5.3379E+01 8.1056E-01
-5.0043E+01 3.0590E-01
-4.6708E+01 2.2589E-01
-4.3372E+01 1.6389E+00
-4.0037E+01 2.2174E+00
-3.6701E+01 2.1454E+00
-3.3365E+01 1.6400E+00
-3.0030E+01 1.7502E+00
-2.6694E+01 1.6211E+00
-2.3359E+01-1.3420E+00
-2.0023E+01-1.8079E+00
-1.6688E+01-2.9743E+00
-1.3352E+01 2.7018E+00
-1.0016E+01 2.5944E+00
-6.6809E+00 2.3627E+00
-3.3454E+00 2.1896E+00
-9.8242E-03 2.1543E+00
 3.3257E+00 1.9652E+00
 6.6613E+00 2.0990E+00
 9.9969E+00 2.2713E+00
 1.3332E+01 2.0075E+00
 1.6668E+01 1.9428E+00
 2.0004E+01-3.0517E+00
 2.3339E+01 2.0420E+00
 2.6675E+01 2.4638E+00
 3.0010E+01-2.4736E+00
 3.3346E+01-3.4679E-02
 3.6681E+01 2.4982E+00
 4.0017E+01-1.8180E+00
 4.3352E+01-2.3757E-01
 4.6688E+01 7.6680E-01
 5.0024E+01 1.2329E+00
 5.3359E+01 2.8852E+00
 5.6695E+01 2.7773E+00
 6.0030E+01-2.9172E-01
 6.3366E+01 2.9302E+00
 6.6701E+01 4.5460E-01
 7.0037E+01-1.8328E+00
 7.3372E+01 1.8217E+00
 7.6708E+01 1.2684E-01
 8.0044E+01-1.2181E+00
 8.3379E+01-1.6658E+00
 8.6715E+01 2.5338E+00
 9.0050E+01-3.1151E+00
 9.3386E+01-2.7727E+00
 9.6721E+01 1.4868E+00
 1.0006E+02 8.4259E-01
 1.0339E+02-2.4260E-01
 1.0673E+02 8.9950E-01
 1.1006E+02 3.3756E-01
 1.1340E+02-1.7495E-01
 1.1673E+02 1.0423E+00
 1.2007E+02 1.1062E+00
 1.2341E+02 9.6777E-01
 1.2674E+02 9.2509E-01
 1.3008E+02 9.2181E-01
 1.3341E+02 9.2198E-01
 1.3675E+02 9.2228E-01
 1.4008E+02 9.2258E-01
 1.4342E+02 9.2288E-01
 1.4675E+02 9.2318E-01
 1.5009E+02 9.2348E-01
 1.5343E+02 9.2377E-01
 1.5676E+02 9.2406E-01
 1.6010E+02 9.2435E-01
 1.6343E+02 9.2464E-01
 1.6677E+02 9.2493E-01
 1.7010E+02 9.2521E-01
 1.7344E+02 9.2550E-01
 1.7677E+02 9.2578E-01
 1.8011E+02 9.2606E-01
 1.8345E+02 9.2634E-01
 1.8678E+02 9.2661E-01
 1.9012E+02 9.2689E-01
 1.9345E+02 9.2716E-01
 1.9679E+02 9.2743E-01
 2.0012E+02 9.2770E-01
 2.0346E+02 9.2797E-01
 2.0679E+02 9.2823E-01
 2.1013E+02 9.2850E-01
 2.1347E+02 9.2876E-01
 2.1680E+02 9.2902E-01
 2.2014E+02 9.2928E-01
 2.2347E+02 9.2954E-01
 2.2681E+02 9.2979E-01
 2.3014E+02 9.3004E-01
 2.3348E+02 9.3030E-01
 2.3681E+02 9.3054E-01
 2.4015E+02 9.3079E-01
 2.4349E+02 9.3104E-01
 2.4682E+02 9.3128E-01
 2.5016E+02 9.3153E-01
 2.5349E+02 9.3176E-01
 2.5683E+02 9.3200E-01
 2.6016E+02 9.3224E-01
 2.6350E+02 9.3248E-01
 2.6683E+02 9.3271E-01
 2.7017E+02 9.3294E-01
 2.7351E+02 9.3317E-01
 2.7684E+02 9.3340E-01
 2.8018E+02 9.3362E-01
 2.8351E+02 9.3385E-01
 2.8685E+02 9.3407E-01
 2.9018E+02 9.3429E-01
 2.9352E+02 9.3451E-01
 2.9685E+02 9.3473E-01
 3.0019E+02 9.3494E-01
 3.0353E+02 9.3515E-01
 3.0686E+02 9.3536E-01
 3.1020E+02 9.3557E-01
 3.1353E+02 9.3578E-01
 3.1687E+02 9.3599E-01
 3.2020E+02 9.3619E-01
 3.2354E+02 9.3640E-01
 3.2687E+02 9.3660E-01
 3.3021E+02 9.3679E-01
 3.3355E+02 9.3699E-01
