-4.9000E+02 4.5302E+17
-4.8000E+02 4.5844E+17
-4.7000E+02 4.6640E+17
-4.6000E+02 4.7235E+17
-4.5000E+02 4.7785E+17
-4.4000E+02 4.8342E+17
-4.3000E+02 4.8881E+17
-4.2000E+02 4.9443E+17
-4.1000E+02 4.9982E+17
-4.0000E+02 5.0529E+17
-3.9000E+02 5.1073E+17
-3.8000E+02 5.1605E+17
-3.7000E+02 5.2147E+17
-3.6000E+02 5.2674E+17
-3.5000E+02 5.3204E+17
-3.4000E+02 5.3728E+17
-3.3000E+02 5.4243E+17
-3.2000E+02 5.4760E+17
-3.1000E+02 5.5263E+17
-3.0000E+02 5.5765E+17
-2.9000E+02 5.6259E+17
-2.8000E+02 5.6741E+17
-2.7000E+02 5.7222E+17
-2.6000E+02 5.7687E+17
-2.5000E+02 5.8148E+17
-2.4000E+02 5.8597E+17
-2.3000E+02 5.9033E+17
-2.2000E+02 5.9463E+17
-2.1000E+02 5.9875E+17
-2.0000E+02 6.0279E+17
-1.9000E+02 6.0668E+17
-1.8000E+02 6.1042E+17
-1.7000E+02 6.1405E+17
-1.6000E+02 6.1749E+17
-1.5000E+02 6.2081E+17
-1.4000E+02 6.2396E+17
-1.3000E+02 6.2693E+17
-1.2000E+02 6.2976E+17
-1.1000E+02 6.3238E+17
-1.0000E+02 6.3485E+17
-9.0000E+01 6.3713E+17
-8.0000E+01 6.4023E+17
-7.0000E+01 6.4481E+17
-6.0000E+01 6.5082E+17
-5.0000E+01 6.5857E+17
-4.0000E+01 6.6819E+17
-3.0000E+01 6.7975E+17
-2.0000E+01 6.9356E+17
-1.0000E+01 7.0979E+17
 0.0000E+00 7.2873E+17
 1.0000E+01 7.5078E+17
 2.0000E+01 7.7623E+17
 3.0000E+01 8.0554E+17
 4.0000E+01 8.3997E+17
 5.0000E+01 8.8146E+17
 6.0000E+01 9.3083E+17
 7.0000E+01 9.7332E+17
 8.0000E+01 9.9373E+17
 9.0000E+01 1.0399E+18
 1.0000E+02 1.1983E+18
 1.1000E+02 1.4356E+18
 1.2000E+02 1.5997E+18
 1.3000E+02 1.6738E+18
 1.4000E+02 1.8017E+18
 1.5000E+02 1.9853E+18
 1.6000E+02 2.1232E+18
 1.7000E+02 2.2952E+18
 1.8000E+02 2.6045E+18
 1.9000E+02 2.9932E+18
 2.0000E+02 3.3509E+18
 2.1000E+02 3.6866E+18
 2.2000E+02 4.5253E+18
 2.3000E+02 6.4412E+18
 2.4000E+02 9.0054E+18
 2.5000E+02 1.2134E+19
 2.6000E+02 1.6933E+19
 2.7000E+02 2.3732E+19
 2.8000E+02 3.2773E+19
 2.9000E+02 4.2161E+19
 3.0000E+02 4.7884E+19
 3.1000E+02 4.9910E+19
 3.2000E+02 5.0730E+19
 3.3000E+02 4.9856E+19
 3.4000E+02 4.6768E+19
 3.5000E+02 4.2910E+19
 3.6000E+02 4.0395E+19
 3.7000E+02 3.8426E+19
 3.8000E+02 3.6225E+19
 3.9000E+02 3.4280E+19
 4.0000E+02 3.2097E+19
 4.1000E+02 3.0331E+19
 4.2000E+02 2.8026E+19
 4.3000E+02 2.5013E+19
 4.4000E+02 2.3007E+19
 4.5000E+02 2.0686E+19
 4.6000E+02 1.8166E+19
 4.7000E+02 1.6533E+19
 4.8000E+02 1.4450E+19
 4.9000E+02 1.2799E+19
 5.0000E+02 1.2499E+19
 5.1000E+02 1.2158E+19
 5.2000E+02 1.1872E+19
 5.3000E+02 1.2400E+19
 5.4000E+02 1.3544E+19
 5.5000E+02 1.5074E+19
 5.6000E+02 1.7187E+19
 5.7000E+02 1.9306E+19
 5.8000E+02 2.1888E+19
 5.9000E+02 2.5151E+19
 6.0000E+02 2.7328E+19
 6.1000E+02 2.9658E+19
 6.2000E+02 3.2051E+19
 6.3000E+02 3.2963E+19
 6.4000E+02 3.4497E+19
 6.5000E+02 3.5361E+19
 6.6000E+02 3.5150E+19
 6.7000E+02 3.5466E+19
 6.8000E+02 3.5243E+19
 6.9000E+02 3.4859E+19
 7.0000E+02 3.4537E+19
 7.1000E+02 3.3743E+19
 7.2000E+02 3.2255E+19
 7.3000E+02 3.1152E+19
 7.4000E+02 3.0587E+19
 7.5000E+02 2.9033E+19
 7.6000E+02 2.7915E+19
 7.7000E+02 2.6716E+19
 7.8000E+02 2.5010E+19
 7.9000E+02 2.4639E+19
 8.0000E+02 2.3180E+19
 8.1000E+02 2.2139E+19
 8.2000E+02 2.2136E+19
 8.3000E+02 2.0644E+19
 8.4000E+02 2.0871E+19
 8.5000E+02 1.9946E+19
 8.6000E+02 1.9393E+19
 8.7000E+02 2.0572E+19
 8.8000E+02 1.7709E+19
 8.9000E+02 1.8242E+19
 9.0000E+02 1.8149E+19
 9.1000E+02 1.5859E+19
 9.2000E+02 1.3833E+19
 9.3000E+02 5.3721E+18
 9.4000E+02 2.1129E+18
 9.5000E+02 2.1045E+18
 9.6000E+02 9.2838E+17
 9.7000E+02 1.5415E+18
 9.8000E+02 9.6867E+17
 9.9000E+02 4.2243E+17
 1.0000E+03 1.1154E+18
 1.0100E+03 6.2943E+17
 1.0200E+03 4.1249E+17
 1.0300E+03 4.2143E+17
 1.0400E+03 3.2193E+17
 1.0500E+03 3.0740E+17
 1.0600E+03 1.4992E+17
 1.0700E+03 3.1795E+17
 1.0800E+03 1.2289E+17
 1.0900E+03 8.6362E+16
 1.1000E+03 2.9387E+17
 1.1100E+03 7.0693E+16
 1.1200E+03 1.4643E+17
 1.1300E+03 1.7857E+17
 1.1400E+03 9.1763E+16
 1.1500E+03 1.3779E+17
 1.1600E+03 1.0681E+17
 1.1700E+03 1.3257E+17
 1.1800E+03 7.7394E+16
 1.1900E+03 1.4659E+17
 1.2000E+03 1.2666E+17
 1.2100E+03 6.5132E+16
 1.2200E+03 2.0112E+17
 1.2300E+03 6.5021E+16
 1.2400E+03 1.2818E+17
 1.2500E+03 1.8316E+17
 1.2600E+03 3.6514E+16
 1.2700E+03 1.9272E+17
 1.2800E+03 1.0082E+17
 1.2900E+03 8.2343E+16
 1.3000E+03 1.8655E+17
 1.3100E+03 5.0050E+16
 1.3200E+03 1.4835E+17
 1.3300E+03 1.1901E+17
 1.3400E+03 7.7443E+16
 1.3500E+03 1.5478E+17
 1.3600E+03 6.6935E+16
 1.3700E+03 1.3746E+17
 1.3800E+03 1.0579E+17
 1.3900E+03 8.7247E+16
 1.4000E+03 1.5403E+17
 1.4100E+03 6.0974E+16
 1.4200E+03 1.3952E+17
 1.4300E+03 1.0903E+17
 1.4400E+03 7.0173E+16
 1.4500E+03 1.5634E+17
 1.4600E+03 5.6237E+16
 1.4700E+03 1.1431E+17
 1.4800E+03 1.1664E+17
 1.4900E+03 4.8021E+16
 1.5000E+03 1.3718E+17
