-4.9000E+02 0.0000E+00
-4.8000E+02 0.0000E+00
-4.7000E+02 0.0000E+00
-4.6000E+02 0.0000E+00
-4.5000E+02 0.0000E+00
-4.4000E+02 0.0000E+00
-4.3000E+02 0.0000E+00
-4.2000E+02 0.0000E+00
-4.1000E+02 0.0000E+00
-4.0000E+02 0.0000E+00
-3.9000E+02 0.0000E+00
-3.8000E+02 8.0819E+17
-3.7000E+02 9.9138E+17
-3.6000E+02 1.2147E+18
-3.5000E+02 1.4831E+18
-3.4000E+02 1.8064E+18
-3.3000E+02 2.1947E+18
-3.2000E+02 2.6575E+18
-3.1000E+02 3.2089E+18
-3.0000E+02 3.8600E+18
-2.9000E+02 4.6249E+18
-2.8000E+02 5.5168E+18
-2.7000E+02 6.5462E+18
-2.6000E+02 7.7239E+18
-2.5000E+02 9.0537E+18
-2.4000E+02 1.0536E+19
-2.3000E+02 1.2165E+19
-2.2000E+02 1.3925E+19
-2.1000E+02 1.5794E+19
-2.0000E+02 1.7741E+19
-1.9000E+02 1.9731E+19
-1.8000E+02 2.1725E+19
-1.7000E+02 2.3684E+19
-1.6000E+02 2.5571E+19
-1.5000E+02 2.7355E+19
-1.4000E+02 2.9011E+19
-1.3000E+02 3.0524E+19
-1.2000E+02 3.1885E+19
-1.1000E+02 3.3093E+19
-1.0000E+02 3.4152E+19
-9.0000E+01 3.5071E+19
-8.0000E+01 3.5860E+19
-7.0000E+01 3.6532E+19
-6.0000E+01 3.7101E+19
-5.0000E+01 3.7579E+19
-4.0000E+01 3.7978E+19
-3.0000E+01 3.8310E+19
-2.0000E+01 3.8583E+19
-1.0000E+01 3.8807E+19
 0.0000E+00 3.8989E+19
 1.0000E+01 3.9135E+19
 2.0000E+01 3.9251E+19
 3.0000E+01 3.9343E+19
 4.0000E+01 3.9410E+19
 5.0000E+01 3.9434E+19
 6.0000E+01 3.9398E+19
 7.0000E+01 3.9443E+19
 8.0000E+01 3.9757E+19
 9.0000E+01 3.9943E+19
 1.0000E+02 3.9311E+19
 1.1000E+02 3.8334E+19
 1.2000E+02 3.8283E+19
 1.3000E+02 3.8831E+19
 1.4000E+02 3.8569E+19
 1.5000E+02 3.7980E+19
 1.6000E+02 3.8172E+19
 1.7000E+02 3.8165E+19
 1.8000E+02 3.7175E+19
 1.9000E+02 3.6570E+19
 2.0000E+02 3.7262E+19
 2.1000E+02 3.7067E+19
 2.2000E+02 3.3230E+19
 2.3000E+02 2.7567E+19
 2.4000E+02 2.2551E+19
 2.5000E+02 1.6534E+19
 2.6000E+02 9.1140E+18
 2.7000E+02 0.0000E+00
 2.8000E+02 0.0000E+00
 2.9000E+02 0.0000E+00
 3.0000E+02 0.0000E+00
 3.1000E+02 0.0000E+00
 3.2000E+02 0.0000E+00
 3.3000E+02 0.0000E+00
 3.4000E+02 0.0000E+00
 3.5000E+02 0.0000E+00
 3.6000E+02 0.0000E+00
 3.7000E+02 0.0000E+00
 3.8000E+02 0.0000E+00
 3.9000E+02 0.0000E+00
 4.0000E+02 0.0000E+00
 4.1000E+02 0.0000E+00
 4.2000E+02 0.0000E+00
 4.3000E+02 0.0000E+00
 4.4000E+02 0.0000E+00
 4.5000E+02 0.0000E+00
 4.6000E+02 0.0000E+00
 4.7000E+02 0.0000E+00
 4.8000E+02 0.0000E+00
 4.9000E+02 1.6551E+17
 5.0000E+02 0.0000E+00
 5.1000E+02 4.9048E+17
 5.2000E+02 1.7198E+18
 5.3000E+02 0.0000E+00
 5.4000E+02 0.0000E+00
 5.5000E+02 0.0000E+00
 5.6000E+02 0.0000E+00
 5.7000E+02 0.0000E+00
 5.8000E+02 0.0000E+00
 5.9000E+02 0.0000E+00
 6.0000E+02 0.0000E+00
 6.1000E+02 0.0000E+00
 6.2000E+02 0.0000E+00
 6.3000E+02 0.0000E+00
 6.4000E+02 0.0000E+00
 6.5000E+02 0.0000E+00
 6.6000E+02 0.0000E+00
 6.7000E+02 0.0000E+00
 6.8000E+02 0.0000E+00
 6.9000E+02 0.0000E+00
 7.0000E+02 0.0000E+00
 7.1000E+02 0.0000E+00
 7.2000E+02 0.0000E+00
 7.3000E+02 0.0000E+00
 7.4000E+02 0.0000E+00
 7.5000E+02 0.0000E+00
 7.6000E+02 0.0000E+00
 7.7000E+02 0.0000E+00
 7.8000E+02 0.0000E+00
 7.9000E+02 0.0000E+00
 8.0000E+02 0.0000E+00
 8.1000E+02 0.0000E+00
 8.2000E+02 0.0000E+00
 8.3000E+02 0.0000E+00
 8.4000E+02 0.0000E+00
 8.5000E+02 0.0000E+00
 8.6000E+02 0.0000E+00
 8.7000E+02 0.0000E+00
 8.8000E+02 0.0000E+00
 8.9000E+02 0.0000E+00
 9.0000E+02 0.0000E+00
 9.1000E+02 0.0000E+00
 9.2000E+02 2.5219E+18
 9.3000E+02 3.9650E+19
 9.4000E+02 3.0207E+19
 9.5000E+02 3.0580E+19
 9.6000E+02 3.2518E+19
 9.7000E+02 2.3427E+19
 9.8000E+02 2.7488E+19
 9.9000E+02 2.5401E+19
 1.0000E+03 2.0073E+19
 1.0100E+03 1.9664E+19
 1.0200E+03 1.8772E+19
 1.0300E+03 1.6666E+19
 1.0400E+03 1.3207E+19
 1.0500E+03 1.3220E+19
 1.0600E+03 1.1300E+19
 1.0700E+03 8.5661E+18
 1.0800E+03 8.9711E+18
 1.0900E+03 6.7538E+18
 1.1000E+03 5.6170E+18
 1.1100E+03 4.8310E+18
 1.1200E+03 4.0285E+18
 1.1300E+03 3.9538E+18
 1.1400E+03 1.9352E+18
 1.1500E+03 2.9438E+18
 1.1600E+03 2.1107E+18
 1.1700E+03 6.1419E+17
 1.1800E+03 2.5800E+18
 1.1900E+03 2.3554E+17
 1.2000E+03 6.3307E+17
 1.2100E+03 1.8278E+18
 1.2200E+03 0.0000E+00
 1.2300E+03 7.8393E+17
 1.2400E+03 1.3000E+17
 1.2500E+03 0.0000E+00
 1.2600E+03 1.1977E+18
 1.2700E+03 0.0000E+00
 1.2800E+03 0.0000E+00
 1.2900E+03 7.0409E+17
 1.3000E+03 0.0000E+00
 1.3100E+03 6.8039E+17
 1.3200E+03 0.0000E+00
 1.3300E+03 0.0000E+00
 1.3400E+03 6.1037E+17
 1.3500E+03 0.0000E+00
 1.3600E+03 3.1901E+17
 1.3700E+03 0.0000E+00
 1.3800E+03 0.0000E+00
 1.3900E+03 4.3744E+17
 1.4000E+03 0.0000E+00
 1.4100E+03 2.8064E+17
 1.4200E+03 0.0000E+00
 1.4300E+03 0.0000E+00
 1.4400E+03 4.8523E+17
 1.4500E+03 0.0000E+00
 1.4600E+03 2.2682E+17
 1.4700E+03 1.2762E+17
 1.4800E+03 0.0000E+00
 1.4900E+03 5.5598E+17
 1.5000E+03 0.0000E+00
