 0.0000E+00 9.1804E-04
 1.0000E+00 0.0000E+00
 2.0000E+00 5.4870E-04
 3.0000E+00 0.0000E+00
 4.0000E+00 0.0000E+00
 5.0000E+00 3.4585E-04
 6.0000E+00 0.0000E+00
 7.0000E+00 3.5165E-04
 8.0000E+00 0.0000E+00
 9.0000E+00 1.2154E-05
 1.0000E+01 0.0000E+00
 1.1000E+01 3.0704E-04
 1.2000E+01 0.0000E+00
 1.3000E+01 1.0562E-03
 1.4000E+01 0.0000E+00
 1.5000E+01 2.5937E-04
 1.6000E+01 8.2261E-04
 1.7000E+01 0.0000E+00
 1.8000E+01 2.6919E-03
 1.9000E+01 0.0000E+00
 2.0000E+01 1.9127E-03
 2.1000E+01 0.0000E+00
 2.2000E+01 0.0000E+00
 2.3000E+01 1.2617E-03
 2.4000E+01 0.0000E+00
 2.5000E+01 1.2014E-03
 2.6000E+01 0.0000E+00
 2.7000E+01 5.7919E-04
 2.8000E+01 0.0000E+00
 2.9000E+01 5.6244E-05
 3.0000E+01 1.7424E-04
 3.1000E+01 0.0000E+00
 3.2000E+01 7.7043E-05
 3.3000E+01 2.5921E-05
 3.4000E+01 2.3120E-04
 3.5000E+01 0.0000E+00
 3.6000E+01 6.4909E-05
 3.7000E+01 4.9199E-04
 3.8000E+01 0.0000E+00
 3.9000E+01 8.5193E-04
 4.0000E+01 0.0000E+00
 4.1000E+01 0.0000E+00
 4.2000E+01 9.2875E-04
 4.3000E+01 0.0000E+00
 4.4000E+01 0.0000E+00
 4.5000E+01 1.6851E-03
 4.6000E+01 0.0000E+00
 4.7000E+01 0.0000E+00
 4.8000E+01 9.4076E-04
 4.9000E+01 0.0000E+00
 5.0000E+01 0.0000E+00
 5.1000E+01 5.1790E-05
 5.2000E+01 2.4738E-04
 5.3000E+01 0.0000E+00
 5.4000E+01 0.0000E+00
 5.5000E+01 8.0278E-05
 5.6000E+01 2.7126E-05
 5.7000E+01 6.2694E-05
 5.8000E+01 6.7663E-05
 5.9000E+01 0.0000E+00
 6.0000E+01 8.6733E-05
 6.1000E+01 1.5643E-04
 6.2000E+01 0.0000E+00
 6.3000E+01 4.7250E-07
 6.4000E+01 0.0000E+00
 6.5000E+01 0.0000E+00
 6.6000E+01 1.0338E-04
 6.7000E+01 1.7214E-05
 6.8000E+01 0.0000E+00
 6.9000E+01 3.0521E-05
 7.0000E+01 9.7732E-05
 7.1000E+01 4.6450E-05
 7.2000E+01 0.0000E+00
 7.3000E+01 0.0000E+00
 7.4000E+01 7.2527E-06
 7.5000E+01 0.0000E+00
 7.6000E+01 0.0000E+00
 7.7000E+01 1.1766E-05
 7.8000E+01 1.8795E-05
 7.9000E+01 1.8448E-05
 8.0000E+01 0.0000E+00
 8.1000E+01 1.2366E-05
 8.2000E+01 0.0000E+00
 8.3000E+01 0.0000E+00
 8.4000E+01 3.1950E-05
 8.5000E+01 0.0000E+00
 8.6000E+01 8.7043E-06
 8.7000E+01 3.7006E-05
 8.8000E+01 0.0000E+00
 8.9000E+01 6.7756E-05
 9.0000E+01 4.8868E-05
 9.1000E+01 0.0000E+00
 9.2000E+01 7.1833E-05
 9.3000E+01 7.4560E-05
 9.4000E+01 0.0000E+00
 9.5000E+01 7.7530E-05
 9.6000E+01 3.9829E-05
 9.7000E+01 0.0000E+00
 9.8000E+01 7.8065E-05
 9.9000E+01 1.0222E-05
 1.0000E+02 0.0000E+00
 1.0100E+02 8.3539E-05
 1.0200E+02 2.0247E-06
 1.0300E+02 0.0000E+00
 1.0400E+02 5.1649E-05
 1.0500E+02 2.4901E-05
 1.0600E+02 0.0000E+00
 1.0700E+02 1.7494E-05
 1.0800E+02 3.4072E-05
 1.0900E+02 0.0000E+00
 1.1000E+02 1.9783E-05
 1.1100E+02 1.8270E-05
 1.1200E+02 0.0000E+00
 1.1300E+02 0.0000E+00
 1.1400E+02 4.1697E-05
 1.1500E+02 4.7636E-06
 1.1600E+02 0.0000E+00
 1.1700E+02 2.4507E-06
 1.1800E+02 3.7483E-05
 1.1900E+02 0.0000E+00
 1.2000E+02 0.0000E+00
 1.2100E+02 2.7788E-05
 1.2200E+02 0.0000E+00
 1.2300E+02 0.0000E+00
 1.2400E+02 3.9669E-05
 1.2500E+02 0.0000E+00
 1.2600E+02 6.5673E-06
 1.2700E+02 5.3624E-05
 1.2800E+02 0.0000E+00
 1.2900E+02 0.0000E+00
 1.3000E+02 3.8670E-05
 1.3100E+02 2.4680E-05
 1.3200E+02 0.0000E+00
 1.3300E+02 0.0000E+00
 1.3400E+02 0.0000E+00
 1.3500E+02 2.7327E-05
 1.3600E+02 1.5360E-05
 1.3700E+02 0.0000E+00
 1.3800E+02 0.0000E+00
 1.3900E+02 6.6401E-06
 1.4000E+02 3.3918E-06
 1.4100E+02 1.3873E-06
 1.4200E+02 0.0000E+00
 1.4300E+02 0.0000E+00
 1.4400E+02 0.0000E+00
 1.4500E+02 1.2865E-05
 1.4600E+02 1.5827E-05
 1.4700E+02 0.0000E+00
 1.4800E+02 0.0000E+00
 1.4900E+02 5.6600E-07
 1.5000E+02 9.6103E-06
 1.5100E+02 1.5632E-06
 1.5200E+02 0.0000E+00
 1.5300E+02 0.0000E+00
 1.5400E+02 2.1467E-06
 1.5500E+02 3.5129E-06
 1.5600E+02 4.9446E-07
 1.5700E+02 5.8221E-07
 1.5800E+02 1.6842E-06
 1.5900E+02 8.9770E-08
 1.6000E+02 0.0000E+00
 1.6100E+02 0.0000E+00
 1.6200E+02 4.1974E-07
 1.6300E+02 1.4359E-06
 1.6400E+02 0.0000E+00
 1.6500E+02 0.0000E+00
 1.6600E+02 0.0000E+00
 1.6700E+02 2.5182E-06
 1.6800E+02 4.4759E-06
 1.6900E+02 2.2218E-06
 1.7000E+02 0.0000E+00
 1.7100E+02 0.0000E+00
 1.7200E+02 0.0000E+00
 1.7300E+02 3.0121E-06
 1.7400E+02 6.6495E-07
 1.7500E+02 1.0911E-06
 1.7600E+02 5.9065E-07
 1.7700E+02 2.4518E-06
 1.7800E+02 8.6101E-07
 1.7900E+02 0.0000E+00
 1.8000E+02 0.0000E+00
 1.8100E+02 0.0000E+00
 1.8200E+02 6.2231E-08
 1.8300E+02 1.7516E-06
 1.8400E+02 2.0990E-06
 1.8500E+02 1.3505E-06
 1.8600E+02 4.2897E-07
 1.8700E+02 0.0000E+00
 1.8800E+02 0.0000E+00
 1.8900E+02 0.0000E+00
 1.9000E+02 0.0000E+00
 1.9100E+02 5.8174E-07
 1.9200E+02 8.3813E-07
 1.9300E+02 2.5153E-07
 1.9400E+02 8.3992E-08
 1.9500E+02 0.0000E+00
 1.9600E+02 0.0000E+00
 1.9700E+02 0.0000E+00
 1.9800E+02 0.0000E+00
 1.9900E+02 0.0000E+00
 2.0000E+02 0.0000E+00
