 0.0000E+00 4.9160E-01
 1.0000E+00 4.9492E-01
 2.0000E+00 5.1766E-01
 3.0000E+00 4.9789E-01
 4.0000E+00 4.9773E-01
 5.0000E+00 5.1965E-01
 6.0000E+00 4.8341E-01
 7.0000E+00 5.0814E-01
 8.0000E+00 5.1078E-01
 9.0000E+00 4.9926E-01
 1.0000E+01 5.1815E-01
 1.1000E+01 5.0024E-01
 1.2000E+01 5.0913E-01
 1.3000E+01 4.9741E-01
 1.4000E+01 5.0623E-01
 1.5000E+01 5.1146E-01
 1.6000E+01 4.9913E-01
 1.7000E+01 5.0818E-01
 1.8000E+01 5.0373E-01
 1.9000E+01 5.0620E-01
 2.0000E+01 5.0414E-01
 2.1000E+01 5.0577E-01
 2.2000E+01 5.0480E-01
 2.3000E+01 4.8950E-01
 2.4000E+01 4.6465E-01
 2.5000E+01 4.4427E-01
 2.6000E+01 3.0076E-01
 2.7000E+01 2.5399E-01
 2.8000E+01 2.7291E-01
 2.9000E+01 2.5313E-01
 3.0000E+01 2.5843E-01
 3.1000E+01 2.5269E-01
 3.2000E+01 2.5245E-01
 3.3000E+01 2.5412E-01
 3.4000E+01 2.5516E-01
 3.5000E+01 2.5243E-01
 3.6000E+01 2.5306E-01
 3.7000E+01 2.6663E-01
 3.8000E+01 2.5341E-01
 3.9000E+01 2.5307E-01
 4.0000E+01 2.5350E-01
 4.1000E+01 2.5269E-01
 4.2000E+01 2.5242E-01
 4.3000E+01 2.4841E-01
 4.4000E+01 2.5248E-01
 4.5000E+01 2.5249E-01
 4.6000E+01 2.5283E-01
 4.7000E+01 2.5234E-01
 4.8000E+01 2.5266E-01
 4.9000E+01 2.5261E-01
 5.0000E+01 2.5258E-01
 5.1000E+01 2.5252E-01
 5.2000E+01 2.5260E-01
 5.3000E+01 2.5283E-01
 5.4000E+01 2.5239E-01
 5.5000E+01 2.6408E-01
 5.6000E+01 2.5278E-01
 5.7000E+01 2.5251E-01
 5.8000E+01 2.5307E-01
 5.9000E+01 2.5265E-01
 6.0000E+01 2.5251E-01
 6.1000E+01 2.5288E-01
 6.2000E+01 2.5257E-01
 6.3000E+01 2.5260E-01
 6.4000E+01 2.5265E-01
 6.5000E+01 2.5280E-01
 6.6000E+01 2.5277E-01
 6.7000E+01 2.5255E-01
 6.8000E+01 2.5257E-01
 6.9000E+01 2.5256E-01
 7.0000E+01 1.5550E-01
 7.1000E+01 2.5257E-01
 7.2000E+01 2.5254E-01
 7.3000E+01 2.1295E-01
 7.4000E+01 2.5259E-01
 7.5000E+01 2.5265E-01
 7.6000E+01 2.5281E-01
 7.7000E+01 2.5268E-01
 7.8000E+01 2.5305E-01
 7.9000E+01 2.5556E-01
 8.0000E+01 2.5410E-01
 8.1000E+01 2.5389E-01
 8.2000E+01 2.5259E-01
 8.3000E+01 2.4482E-01
 8.4000E+01 2.5246E-01
 8.5000E+01 2.5249E-01
 8.6000E+01 2.5269E-01
 8.7000E+01 2.5244E-01
 8.8000E+01 1.8486E-01
 8.9000E+01 2.5252E-01
 9.0000E+01 2.5255E-01
 9.1000E+01 2.5152E-01
 9.2000E+01 2.5243E-01
 9.3000E+01 2.5265E-01
 9.4000E+01 2.4976E-01
 9.5000E+01 2.5240E-01
 9.6000E+01 1.7920E-01
 9.7000E+01 1.4394E-01
 9.8000E+01 6.0809E-02
 9.9000E+01 8.4943E-03
 1.0000E+02 2.1622E-01
 1.0100E+02 2.3515E-01
 1.0200E+02 4.3797E-02
 1.0300E+02 4.0446E-03
 1.0400E+02 1.4709E-02
 1.0500E+02 1.4910E-02
 1.0600E+02 1.6256E-02
 1.0700E+02 1.3663E-03
 1.0800E+02 1.1841E-03
 1.0900E+02 4.6946E-03
 1.1000E+02 5.6822E-03
 1.1100E+02 5.5002E-03
 1.1200E+02 1.8790E-03
 1.1300E+02 3.5635E-04
 1.1400E+02 1.5026E-03
 1.1500E+02 1.4785E-03
 1.1600E+02 3.8164E-04
 1.1700E+02 3.1599E-05
 1.1800E+02 3.6722E-07
 1.1900E+02 6.1223E-06
 1.2000E+02 3.5753E-06
 1.2100E+02 0.0000E+00
 1.2200E+02 0.0000E+00
 1.2300E+02 6.8663E-08
 1.2400E+02 7.0007E-06
 1.2500E+02 1.0375E-05
 1.2600E+02 5.6960E-06
 1.2700E+02 6.0669E-07
 1.2800E+02 2.4453E-06
 1.2900E+02 5.5674E-05
 1.3000E+02 4.2037E-04
 1.3100E+02 9.5883E-04
 1.3200E+02 7.9623E-04
 1.3300E+02 2.4917E-04
 1.3400E+02 2.9424E-05
 1.3500E+02 3.5172E-05
 1.3600E+02 1.2499E-04
 1.3700E+02 2.2538E-04
 1.3800E+02 2.5991E-04
 1.3900E+02 1.6849E-04
 1.4000E+02 6.5743E-05
 1.4100E+02 2.3517E-05
 1.4200E+02 7.9541E-06
 1.4300E+02 2.3344E-06
 1.4400E+02 8.8615E-07
 1.4500E+02 6.4015E-07
 1.4600E+02 3.4254E-07
 1.4700E+02 2.6076E-07
 1.4800E+02 2.3290E-08
 1.4900E+02 0.0000E+00
 1.5000E+02 0.0000E+00
 1.5100E+02 0.0000E+00
 1.5200E+02 0.0000E+00
 1.5300E+02 0.0000E+00
 1.5400E+02 0.0000E+00
 1.5500E+02 7.4702E-08
 1.5600E+02 2.4426E-07
 1.5700E+02 3.3039E-07
 1.5800E+02 2.4809E-07
 1.5900E+02 2.4971E-07
 1.6000E+02 8.2367E-08
 1.6100E+02 8.2900E-08
 1.6200E+02 1.6790E-07
 1.6300E+02 0.0000E+00
 1.6400E+02 8.3952E-08
 1.6500E+02 0.0000E+00
 1.6600E+02 0.0000E+00
 1.6700E+02 0.0000E+00
 1.6800E+02 0.0000E+00
 1.6900E+02 0.0000E+00
 1.7000E+02 0.0000E+00
 1.7100E+02 0.0000E+00
 1.7200E+02 0.0000E+00
 1.7300E+02 0.0000E+00
 1.7400E+02 0.0000E+00
 1.7500E+02 0.0000E+00
 1.7600E+02 0.0000E+00
 1.7700E+02 0.0000E+00
 1.7800E+02 0.0000E+00
 1.7900E+02 0.0000E+00
 1.8000E+02 0.0000E+00
 1.8100E+02 0.0000E+00
 1.8200E+02 0.0000E+00
 1.8300E+02 0.0000E+00
 1.8400E+02 0.0000E+00
 1.8500E+02 0.0000E+00
 1.8600E+02 0.0000E+00
 1.8700E+02 0.0000E+00
 1.8800E+02 0.0000E+00
 1.8900E+02 0.0000E+00
 1.9000E+02 0.0000E+00
 1.9100E+02 0.0000E+00
 1.9200E+02 0.0000E+00
 1.9300E+02 0.0000E+00
 1.9400E+02 0.0000E+00
 1.9500E+02 0.0000E+00
 1.9600E+02 0.0000E+00
 1.9700E+02 0.0000E+00
 1.9800E+02 0.0000E+00
 1.9900E+02 0.0000E+00
 2.0000E+02 0.0000E+00
