-3.3023E+02 8.8085E-01
-3.2689E+02 8.7873E-01
-3.2356E+02 8.7658E-01
-3.2022E+02 8.7440E-01
-3.1689E+02 8.7219E-01
-3.1355E+02 8.6994E-01
-3.1022E+02 8.6767E-01
-3.0688E+02 8.6535E-01
-3.0355E+02 8.6300E-01
-3.0021E+02 8.6062E-01
-2.9687E+02 8.5821E-01
-2.9354E+02 8.5576E-01
-2.9020E+02 8.5327E-01
-2.8687E+02 8.5075E-01
-2.8353E+02 8.4819E-01
-2.8020E+02 8.4560E-01
-2.7686E+02 8.4297E-01
-2.7353E+02 8.4030E-01
-2.7019E+02 8.3760E-01
-2.6685E+02 8.3486E-01
-2.6352E+02 8.3208E-01
-2.6018E+02 8.2927E-01
-2.5685E+02 8.2642E-01
-2.5351E+02 8.2353E-01
-2.5018E+02 8.2061E-01
-2.4684E+02 8.1764E-01
-2.4351E+02 8.1464E-01
-2.4017E+02 8.1160E-01
-2.3683E+02 8.0853E-01
-2.3350E+02 8.0541E-01
-2.3016E+02 8.0226E-01
-2.2683E+02 7.9907E-01
-2.2349E+02 7.9584E-01
-2.2016E+02 7.9257E-01
-2.1682E+02 7.8926E-01
-2.1349E+02 7.8591E-01
-2.1015E+02 7.8253E-01
-2.0681E+02 7.7911E-01
-2.0348E+02 7.7565E-01
-2.0014E+02 7.7215E-01
-1.9681E+02 7.6861E-01
-1.9347E+02 7.6503E-01
-1.9014E+02 7.6142E-01
-1.8680E+02 7.5777E-01
-1.8347E+02 7.5408E-01
-1.8013E+02 7.5035E-01
-1.7679E+02 7.4658E-01
-1.7346E+02 7.4278E-01
-1.7012E+02 7.3894E-01
-1.6679E+02 7.3506E-01
-1.6345E+02 7.3115E-01
-1.6012E+02 7.2720E-01
-1.5678E+02 7.2321E-01
-1.5345E+02 7.1919E-01
-1.5011E+02 7.1513E-01
-1.4677E+02 7.1104E-01
-1.4344E+02 7.0692E-01
-1.4010E+02 7.0276E-01
-1.3677E+02 6.9857E-01
-1.3343E+02 6.9436E-01
-1.3010E+02 6.9012E-01
-1.2676E+02 6.8586E-01
-1.2343E+02 6.8158E-01
-1.2009E+02 6.7728E-01
-1.1675E+02 6.7296E-01
-1.1342E+02 6.6862E-01
-1.1008E+02 6.6424E-01
-1.0675E+02 6.5980E-01
-1.0341E+02 6.5527E-01
-1.0008E+02 6.5061E-01
-9.6741E+01 6.4577E-01
-9.3405E+01 6.4071E-01
-9.0070E+01 6.3537E-01
-8.6734E+01 6.2972E-01
-8.3399E+01 6.2375E-01
-8.0063E+01 6.1747E-01
-7.6728E+01 6.1095E-01
-7.3392E+01 6.0411E-01
-7.0057E+01 5.9786E-01
-6.6721E+01 5.9180E-01
-6.3385E+01 5.8226E-01
-6.0050E+01 5.9502E-01
-5.6714E+01 6.0080E-01
-5.3379E+01 5.8928E-01
-5.0043E+01 5.8004E-01
-4.6708E+01 5.7409E-01
-4.3372E+01 5.6684E-01
-4.0037E+01 5.5988E-01
-3.6701E+01 5.5203E-01
-3.3365E+01 5.1226E-01
-3.0030E+01 6.0941E-01
-2.6694E+01 5.8103E-01
-2.3359E+01 5.1498E-01
-2.0023E+01 5.4297E-01
-1.6688E+01 4.3268E-01
-1.3352E+01 4.2552E-01
-1.0016E+01 4.7671E-01
-6.6809E+00 4.6775E-01
-3.3454E+00 5.1940E-01
-9.8242E-03 4.9160E-01
 3.3257E+00 4.7833E-01
 6.6613E+00 4.4556E-01
 9.9969E+00 2.8047E-01
 1.3332E+01 3.3728E-01
 1.6668E+01 6.4644E-01
 2.0004E+01 3.4448E-01
 2.3339E+01 5.1938E-01
 2.6675E+01 5.2261E-01
 3.0010E+01 4.4422E-01
 3.3346E+01 4.4735E-01
 3.6681E+01 4.3082E-01
 4.0017E+01 4.2800E-01
 4.3352E+01 4.2707E-01
 4.6688E+01 3.7305E-01
 5.0024E+01 4.6452E-01
 5.3359E+01 4.1570E-01
 5.6695E+01 4.1357E-01
 6.0030E+01 4.1572E-01
 6.3366E+01 4.1219E-01
 6.6701E+01 4.0043E-01
 7.0037E+01 2.0054E-01
 7.3372E+01 1.9809E-01
 7.6708E+01 1.9642E-01
 8.0044E+01 1.9359E-01
 8.3379E+01 1.9162E-01
 8.6715E+01 1.8846E-01
 9.0050E+01 2.9441E-04
 9.3386E+01 1.9796E-04
 9.6721E+01 1.6196E-04
 1.0006E+02 1.5390E-04
 1.0339E+02 1.4915E-04
 1.0673E+02 1.4571E-04
 1.1006E+02 7.1882E-05
 1.1340E+02 7.0311E-05
 1.1673E+02 6.8614E-05
 1.2007E+02 5.3411E-05
 1.2341E+02 4.5070E-06
 1.2674E+02 0.0000E+00
 1.3008E+02 7.2716E-10
 1.3341E+02 1.5799E-12
 1.3675E+02 0.0000E+00
 1.4008E+02 4.3870E-20
 1.4342E+02 0.0000E+00
 1.4675E+02 3.5669E-32
 1.5009E+02 7.8645E-41
 1.5343E+02 0.0000E+00
 1.5676E+02 0.0000E+00
 1.6010E+02 0.0000E+00
 1.6343E+02 0.0000E+00
 1.6677E+02 0.0000E+00
 1.7010E+02 0.0000E+00
 1.7344E+02 0.0000E+00
 1.7677E+02 0.0000E+00
 1.8011E+02 0.0000E+00
 1.8345E+02 0.0000E+00
 1.8678E+02 0.0000E+00
 1.9012E+02 0.0000E+00
 1.9345E+02 0.0000E+00
 1.9679E+02 0.0000E+00
 2.0012E+02 0.0000E+00
 2.0346E+02 0.0000E+00
 2.0679E+02 0.0000E+00
 2.1013E+02 0.0000E+00
 2.1347E+02 0.0000E+00
 2.1680E+02 0.0000E+00
 2.2014E+02 0.0000E+00
 2.2347E+02 0.0000E+00
 2.2681E+02 0.0000E+00
 2.3014E+02 0.0000E+00
 2.3348E+02 0.0000E+00
 2.3681E+02 0.0000E+00
 2.4015E+02 0.0000E+00
 2.4349E+02 0.0000E+00
 2.4682E+02 0.0000E+00
 2.5016E+02 0.0000E+00
 2.5349E+02 0.0000E+00
 2.5683E+02 0.0000E+00
 2.6016E+02 0.0000E+00
 2.6350E+02 0.0000E+00
 2.6683E+02 0.0000E+00
 2.7017E+02 0.0000E+00
 2.7351E+02 0.0000E+00
 2.7684E+02 0.0000E+00
 2.8018E+02 0.0000E+00
 2.8351E+02 0.0000E+00
 2.8685E+02 0.0000E+00
 2.9018E+02 0.0000E+00
 2.9352E+02 0.0000E+00
 2.9685E+02 0.0000E+00
 3.0019E+02 0.0000E+00
 3.0353E+02 0.0000E+00
 3.0686E+02 0.0000E+00
 3.1020E+02 0.0000E+00
 3.1353E+02 0.0000E+00
 3.1687E+02 0.0000E+00
 3.2020E+02 0.0000E+00
 3.2354E+02 0.0000E+00
 3.2687E+02 0.0000E+00
 3.3021E+02 0.0000E+00
 3.3355E+02 0.0000E+00
